70-110-0_at_679.99nm_cut_at_1283.50Y_01.dat
24.01.2024
11:32:22
cut middle at Y: 1283.50
top cursor: 1343 down cursor: 1224 mean of: 119 lines , 2560 datapoints
wavelength(nm)	intensity[arb. units]
515.994	446.958
516.122	424.840
516.250	421.874
516.378	414.832
516.506	416.756
516.635	417.311
516.763	425.286
516.891	429.445
517.019	426.992
517.147	426.319
517.275	428.210
517.403	427.739
517.531	424.975
517.660	423.345
517.788	426.429
517.916	427.782
518.044	430.639
518.172	433.756
518.300	428.857
518.428	430.462
518.556	430.227
518.685	432.059
518.813	431.992
518.941	428.521
519.069	429.689
519.197	431.017
519.325	437.857
519.453	432.874
519.581	443.008
519.710	434.571
519.838	441.966
519.966	438.202
520.094	438.269
520.222	442.412
520.350	444.958
520.478	444.840
520.606	445.958
520.735	442.849
520.863	447.924
520.991	452.437
521.119	444.420
521.247	452.731
521.375	450.866
521.503	451.034
521.631	456.092
521.760	453.370
521.888	458.134
522.016	456.933
522.144	455.319
522.272	458.370
522.400	458.689
522.528	463.571
522.656	463.370
522.785	465.714
522.913	460.529
523.041	458.613
523.169	464.361
523.297	464.681
523.425	465.185
523.553	464.168
523.681	467.025
523.810	466.504
523.938	472.412
524.066	469.454
524.194	475.160
524.322	469.790
524.450	467.992
524.578	472.471
524.706	472.311
524.835	467.496
524.963	477.992
525.091	470.084
525.219	474.353
525.347	472.050
525.475	468.824
525.603	470.622
525.731	470.471
525.860	476.370
525.988	466.479
526.116	470.916
526.244	475.706
526.372	466.908
526.500	472.025
526.628	474.798
526.756	470.395
526.885	475.563
527.013	471.882
527.141	475.134
527.269	471.538
527.397	476.933
527.525	477.134
527.653	477.529
527.781	470.471
527.910	478.176
528.038	478.513
528.166	477.857
528.294	478.941
528.422	476.689
528.550	476.966
528.678	481.798
528.806	481.866
528.935	483.361
529.063	479.151
529.191	478.227
529.319	481.328
529.447	485.798
529.575	486.672
529.703	485.403
529.831	482.429
529.960	483.857
530.088	491.370
530.216	491.866
530.344	477.202
530.472	478.866
530.600	488.143
530.728	488.580
530.856	490.958
530.985	485.588
531.113	486.513
531.241	490.874
531.369	495.647
531.497	487.933
531.625	486.160
531.753	489.462
531.881	488.563
532.010	487.319
532.138	489.420
532.266	482.605
532.394	486.807
532.522	478.647
532.650	490.739
532.778	492.218
532.906	487.496
533.035	489.908
533.163	486.630
533.291	485.571
533.419	487.336
533.547	484.294
533.675	486.521
533.803	481.118
533.931	483.000
534.060	487.992
534.188	483.672
534.316	490.151
534.444	484.193
534.572	486.891
534.700	489.345
534.828	490.882
534.956	490.361
535.085	489.571
535.213	491.101
535.341	491.277
535.469	488.723
535.597	495.496
535.725	492.345
535.853	492.319
535.981	500.748
536.110	500.403
536.238	499.857
536.366	503.731
536.494	499.664
536.622	503.731
536.750	502.857
536.878	502.849
537.006	508.412
537.135	507.496
537.263	505.765
537.391	513.437
537.519	505.664
537.647	510.563
537.775	509.571
537.903	513.395
538.031	510.403
538.160	514.076
538.288	511.529
538.416	514.681
538.544	512.193
538.672	521.840
538.800	517.067
538.928	519.605
539.056	518.042
539.185	517.445
539.313	513.815
539.441	516.571
539.569	524.294
539.697	520.655
539.825	521.899
539.953	519.412
540.081	516.924
540.210	517.513
540.338	523.076
540.466	523.050
540.594	521.210
540.722	513.336
540.850	521.807
540.978	520.714
541.106	517.605
541.235	528.160
541.363	520.378
541.491	520.765
541.619	519.773
541.747	522.336
541.875	518.227
542.003	525.185
542.131	518.269
542.260	520.555
542.388	522.941
542.516	522.151
542.644	519.613
542.772	518.353
542.900	523.773
543.028	523.924
543.156	524.882
543.285	528.134
543.413	527.235
543.541	526.050
543.669	529.378
543.797	528.647
543.925	524.269
544.053	529.975
544.181	528.639
544.310	526.076
544.438	525.765
544.566	526.109
544.694	528.277
544.822	527.235
544.950	525.160
545.078	522.143
545.206	526.958
545.335	522.840
545.463	521.521
545.591	524.681
545.719	528.445
545.847	525.639
545.975	527.008
546.103	524.092
546.231	524.798
546.360	526.471
546.488	527.874
546.616	526.513
546.744	525.588
546.872	522.361
547.000	526.420
547.128	526.815
547.256	521.555
547.385	517.227
547.513	520.109
547.641	522.966
547.769	523.193
547.897	521.235
548.025	521.639
548.153	520.227
548.281	515.017
548.410	524.815
548.538	522.689
548.666	527.176
548.794	522.924
548.922	524.672
549.050	525.613
549.178	525.168
549.306	532.092
549.435	532.126
549.563	525.597
549.691	524.176
549.819	528.857
549.947	523.395
550.075	527.622
550.203	525.992
550.331	526.227
550.460	526.008
550.588	530.311
550.716	528.992
550.844	524.235
550.972	521.210
551.100	525.210
551.228	531.151
551.356	526.109
551.485	528.286
551.613	525.807
551.741	521.723
551.869	518.605
551.997	517.395
552.125	523.227
552.253	528.244
552.381	520.723
552.510	517.429
552.638	520.597
552.766	521.025
552.894	522.387
553.022	520.311
553.150	516.647
553.278	516.555
553.406	514.714
553.535	513.639
553.663	509.412
553.791	509.807
553.919	511.697
554.047	513.000
554.175	512.437
554.303	515.034
554.431	508.479
554.560	513.748
554.688	512.756
554.816	515.513
554.944	505.143
555.072	510.151
555.200	512.874
555.328	509.378
555.456	515.151
555.585	511.437
555.713	510.261
555.841	513.050
555.969	509.303
556.097	514.067
556.225	510.235
556.353	505.471
556.481	512.261
556.610	518.874
556.738	511.025
556.866	517.891
556.994	512.992
557.122	514.109
557.250	517.042
557.378	515.546
557.506	512.597
557.635	511.966
557.763	514.412
557.891	521.034
558.019	511.261
558.147	513.303
558.275	513.689
558.403	518.924
558.531	512.118
558.660	512.269
558.788	513.261
558.916	520.798
559.044	516.277
559.172	512.437
559.300	517.328
559.428	513.286
559.556	513.143
559.685	515.681
559.813	513.496
559.941	510.538
560.069	518.303
560.197	509.387
560.325	515.866
560.453	508.218
560.581	513.798
560.710	517.109
560.838	512.067
560.966	516.504
561.094	518.134
561.222	511.563
561.350	511.008
561.478	505.824
561.606	511.798
561.735	513.798
561.863	504.059
561.991	512.345
562.119	509.966
562.247	509.630
562.375	511.008
562.503	512.160
562.631	506.958
562.760	504.538
562.888	513.916
563.016	506.462
563.144	501.235
563.272	505.941
563.400	503.118
563.528	506.798
563.656	510.252
563.785	504.059
563.913	502.882
564.041	506.076
564.169	507.765
564.297	508.866
564.425	506.109
564.553	512.261
564.681	508.319
564.810	506.017
564.938	509.966
565.066	508.454
565.194	512.378
565.322	515.160
565.450	512.731
565.578	511.882
565.706	510.084
565.835	510.462
565.963	508.395
566.091	512.983
566.219	515.664
566.347	514.521
566.475	515.504
566.603	516.891
566.731	520.731
566.860	519.697
566.988	518.916
567.116	518.017
567.244	517.437
567.372	515.176
567.500	521.840
567.628	520.613
567.756	523.555
567.885	520.008
568.013	531.345
568.141	530.387
568.269	527.286
568.397	526.840
568.525	524.874
568.653	529.050
568.781	525.042
568.910	529.538
569.038	526.437
569.166	525.311
569.294	533.303
569.422	531.639
569.550	528.034
569.678	535.546
569.806	535.109
569.935	531.866
570.063	537.563
570.191	534.672
570.319	536.538
570.447	532.143
570.575	532.462
570.703	532.706
570.831	543.134
570.960	535.462
571.088	539.235
571.216	537.874
571.344	535.235
571.472	541.840
571.600	540.756
571.728	540.958
571.856	538.798
571.985	547.479
572.113	540.252
572.241	536.319
572.369	547.933
572.497	540.521
572.625	541.437
572.753	544.059
572.881	539.790
573.010	547.630
573.138	551.336
573.266	550.487
573.394	549.017
573.522	546.756
573.650	548.445
573.778	544.807
573.906	546.185
574.035	543.874
574.163	547.294
574.291	548.412
574.419	546.008
574.547	548.513
574.675	551.067
574.803	547.067
574.931	545.319
575.060	552.748
575.188	553.655
575.316	553.025
575.444	549.807
575.572	551.655
575.700	542.815
575.828	557.059
575.956	557.160
576.085	553.361
576.213	552.689
576.341	546.546
576.469	548.588
576.597	549.992
576.725	548.983
576.853	548.319
576.981	553.185
577.110	547.370
577.238	559.882
577.366	550.555
577.494	547.244
577.622	547.025
577.750	549.756
577.878	549.160
578.006	555.639
578.135	551.891
578.263	551.185
578.391	560.756
578.519	552.042
578.647	556.378
578.775	557.681
578.903	549.807
579.031	554.899
579.160	556.546
579.288	547.639
579.416	554.042
579.544	554.723
579.672	561.328
579.800	559.588
579.928	550.798
580.056	559.151
580.185	554.294
580.313	559.034
580.441	559.303
580.569	557.034
580.697	554.202
580.825	562.513
580.953	559.303
581.081	572.210
581.210	566.513
581.338	568.849
581.466	568.126
581.594	574.429
581.722	563.857
581.850	564.840
581.978	568.899
582.106	572.378
582.235	568.067
582.363	567.387
582.491	574.697
582.619	571.059
582.747	581.050
582.875	578.874
583.003	582.555
583.131	577.336
583.260	581.639
583.388	584.345
583.516	589.571
583.644	586.563
583.772	586.118
583.900	590.773
584.028	590.378
584.156	585.950
584.285	590.370
584.413	594.387
584.541	599.706
584.669	594.504
584.797	596.546
584.925	599.387
585.053	600.950
585.181	597.739
585.310	605.403
585.438	600.471
585.566	605.328
585.694	608.252
585.822	612.008
585.950	611.908
586.078	606.697
586.206	613.639
586.335	618.571
586.463	612.252
586.591	618.471
586.719	611.345
586.847	616.933
586.975	621.992
587.103	617.857
587.231	616.420
587.360	619.849
587.488	630.025
587.616	621.361
587.744	625.403
587.872	619.739
588.000	621.303
588.128	630.151
588.256	628.151
588.385	626.731
588.513	628.227
588.641	627.059
588.769	633.277
588.897	629.244
589.025	627.134
589.153	624.395
589.281	626.815
589.410	634.311
589.538	628.714
589.666	633.000
589.794	638.370
589.922	635.336
590.050	642.244
590.178	624.765
590.306	636.387
590.435	633.588
590.563	632.412
590.691	632.420
590.819	634.361
590.947	645.193
591.075	631.521
591.203	633.639
591.331	643.697
591.460	645.739
591.588	637.882
591.716	650.832
591.844	640.479
591.972	653.992
592.100	641.941
592.228	641.328
592.356	644.042
592.485	642.059
592.613	644.807
592.741	649.924
592.869	651.975
592.997	650.395
593.125	648.151
593.253	653.244
593.381	642.950
593.510	654.790
593.638	655.723
593.766	654.613
593.894	651.605
594.022	652.773
594.150	654.546
594.278	657.639
594.406	659.496
594.535	660.672
594.663	660.983
594.791	659.689
594.919	659.319
595.047	668.345
595.175	666.992
595.303	663.118
595.431	667.756
595.560	672.891
595.688	665.798
595.816	664.412
595.944	681.462
596.072	676.613
596.200	677.588
596.328	673.403
596.456	673.899
596.585	683.613
596.713	683.395
596.841	684.437
596.969	682.353
597.097	685.664
597.225	687.782
597.353	690.395
597.481	683.622
597.610	690.563
597.738	688.866
597.866	682.437
597.994	689.336
598.122	693.160
598.250	691.807
598.378	695.050
598.506	691.000
598.635	685.782
598.763	694.076
598.891	694.227
599.019	703.504
599.147	699.563
599.275	693.454
599.403	698.941
599.531	699.714
599.660	704.361
599.788	703.160
599.916	703.571
600.044	703.218
600.172	705.908
600.300	711.126
600.428	705.513
600.556	708.092
600.685	719.706
600.813	713.017
600.941	721.000
601.069	719.840
601.197	722.849
601.325	716.714
601.453	723.202
601.581	727.580
601.710	724.412
601.838	728.798
601.966	720.840
602.094	730.462
602.222	730.244
602.350	732.908
602.478	726.168
602.606	739.882
602.735	738.076
602.863	737.672
602.991	746.639
603.119	749.672
603.247	742.941
603.375	741.689
603.503	742.647
603.631	753.908
603.760	750.504
603.888	756.563
604.016	752.000
604.144	751.563
604.272	758.008
604.400	763.555
604.528	758.185
604.656	761.193
604.785	765.899
604.913	773.655
605.041	767.160
605.169	769.597
605.297	764.908
605.425	765.395
605.553	773.697
605.681	762.857
605.810	773.765
605.938	779.521
606.066	776.185
606.194	782.538
606.322	777.731
606.450	782.815
606.578	789.084
606.706	788.832
606.835	782.387
606.963	787.479
607.091	795.672
607.219	790.319
607.347	785.580
607.475	790.916
607.603	793.933
607.731	795.185
607.860	776.706
607.988	793.782
608.116	790.529
608.244	796.429
608.372	785.059
608.500	798.479
608.628	794.193
608.756	797.059
608.885	793.311
609.013	798.025
609.141	793.958
609.269	797.101
609.397	801.613
609.525	804.739
609.653	800.252
609.781	802.983
609.910	803.429
610.038	801.664
610.166	802.092
610.294	810.908
610.422	799.580
610.550	803.042
610.678	799.319
610.806	806.521
610.935	805.126
611.063	804.395
611.191	803.630
611.319	809.538
611.447	809.672
611.575	801.487
611.703	800.092
611.831	807.395
611.960	815.487
612.088	806.403
612.216	809.403
612.344	813.235
612.472	810.252
612.600	816.000
612.728	814.261
612.856	820.084
612.985	813.840
613.113	808.143
613.241	817.269
613.369	822.412
613.497	815.849
613.625	823.613
613.753	819.269
613.881	820.387
614.010	825.908
614.138	823.143
614.266	819.504
614.394	816.622
614.522	817.328
614.650	827.218
614.778	828.076
614.906	825.193
615.035	820.160
615.163	824.134
615.291	833.714
615.419	830.269
615.547	822.143
615.675	838.193
615.803	825.983
615.931	839.261
616.060	836.454
616.188	837.252
616.316	835.319
616.444	837.328
616.572	842.958
616.700	838.235
616.828	854.714
616.956	856.185
617.085	857.160
617.213	857.681
617.341	846.437
617.469	860.109
617.597	857.403
617.725	863.025
617.853	855.731
617.981	854.244
618.110	860.109
618.238	856.454
618.366	873.277
618.494	875.983
618.622	874.840
618.750	873.882
618.878	869.000
619.006	873.513
619.135	880.639
619.263	876.983
619.391	876.109
619.519	883.218
619.647	886.882
619.775	884.748
619.903	889.563
620.031	890.185
620.160	891.244
620.288	888.034
620.416	900.252
620.544	903.706
620.672	897.185
620.800	903.571
620.928	905.681
621.056	906.345
621.185	906.353
621.313	902.958
621.441	920.975
621.569	921.756
621.697	920.613
621.825	921.168
621.953	931.151
622.081	930.227
622.210	925.613
622.338	928.891
622.466	928.118
622.594	938.647
622.722	930.714
622.850	933.857
622.978	940.824
623.106	931.613
623.235	946.664
623.363	943.739
623.491	947.731
623.619	937.294
623.747	949.050
623.875	946.336
624.003	942.555
624.131	951.857
624.260	943.092
624.388	951.185
624.516	960.059
624.644	957.303
624.772	958.605
624.900	954.773
625.028	955.008
625.156	972.244
625.285	955.420
625.413	964.151
625.541	965.059
625.669	971.798
625.797	958.908
625.925	965.034
626.053	961.008
626.181	968.496
626.310	973.319
626.438	973.429
626.566	969.042
626.694	972.815
626.822	974.924
626.950	980.538
627.078	974.445
627.206	971.084
627.335	985.983
627.463	980.345
627.591	986.353
627.719	980.277
627.847	991.067
627.975	1000.815
628.103	984.723
628.231	992.714
628.360	985.454
628.488	987.479
628.616	992.294
628.744	990.109
628.872	992.084
629.000	997.059
629.128	998.437
629.256	1011.950
629.385	1000.958
629.513	997.899
629.641	1002.176
629.769	1000.042
629.897	1001.008
630.025	996.798
630.153	1019.277
630.281	1011.950
630.410	1009.126
630.538	1019.227
630.666	1015.395
630.794	1017.639
630.922	1009.966
631.050	1009.908
631.178	1012.891
631.306	1013.277
631.435	1017.563
631.563	1026.563
631.691	1007.857
631.819	1023.824
631.947	1023.840
632.075	1018.874
632.203	1026.395
632.331	1020.765
632.460	1022.017
632.588	1032.429
632.716	1025.697
632.844	1025.059
632.972	1025.504
633.100	1039.899
633.228	1033.756
633.356	1033.286
633.485	1033.479
633.613	1036.840
633.741	1031.622
633.869	1033.748
633.997	1041.555
634.125	1037.084
634.253	1030.378
634.381	1029.109
634.510	1038.580
634.638	1036.529
634.766	1035.891
634.894	1037.521
635.022	1034.630
635.150	1037.908
635.278	1051.034
635.406	1045.134
635.535	1048.739
635.663	1048.958
635.791	1046.050
635.919	1052.597
636.047	1049.916
636.175	1036.008
636.303	1045.672
636.431	1053.622
636.560	1049.992
636.688	1048.370
636.816	1043.681
636.944	1050.597
637.072	1063.714
637.200	1053.479
637.328	1048.824
637.456	1055.429
637.585	1068.244
637.713	1061.143
637.841	1059.773
637.969	1058.756
638.097	1047.941
638.225	1055.731
638.353	1069.832
638.481	1065.462
638.610	1067.109
638.738	1063.773
638.866	1056.605
638.994	1063.160
639.122	1064.504
639.250	1072.874
639.378	1064.235
639.506	1065.874
639.635	1064.731
639.763	1066.588
639.891	1076.765
640.019	1079.168
640.147	1077.084
640.275	1072.605
640.403	1074.185
640.531	1083.076
640.660	1080.840
640.788	1088.521
640.916	1084.908
641.044	1094.790
641.172	1085.765
641.300	1091.143
641.428	1098.403
641.556	1091.992
641.685	1094.790
641.813	1089.504
641.941	1095.807
642.069	1098.471
642.197	1096.807
642.325	1091.807
642.453	1099.059
642.581	1107.067
642.710	1100.933
642.838	1112.235
642.966	1101.824
643.094	1113.084
643.222	1110.622
643.350	1111.454
643.478	1116.908
643.606	1121.134
643.735	1113.992
643.863	1103.588
643.991	1124.227
644.119	1117.328
644.247	1120.387
644.375	1116.067
644.503	1135.504
644.631	1129.630
644.760	1128.084
644.888	1137.630
645.016	1139.529
645.144	1143.000
645.272	1130.000
645.400	1130.328
645.528	1142.126
645.656	1128.975
645.785	1137.849
645.913	1145.294
646.041	1156.160
646.169	1125.160
646.297	1142.185
646.425	1139.336
646.553	1134.748
646.681	1144.445
646.810	1135.202
646.938	1145.513
647.066	1138.815
647.194	1136.017
647.322	1139.933
647.450	1138.849
647.578	1144.681
647.706	1142.168
647.835	1142.000
647.963	1141.529
648.091	1150.824
648.219	1135.185
648.347	1142.370
648.475	1151.975
648.603	1151.639
648.731	1146.244
648.860	1134.218
648.988	1149.084
649.116	1136.395
649.244	1136.294
649.372	1140.664
649.500	1134.958
649.628	1146.261
649.756	1139.076
649.885	1130.832
650.013	1136.328
650.141	1131.059
650.269	1130.714
650.397	1140.437
650.525	1131.168
650.653	1128.050
650.781	1126.210
650.910	1121.672
651.038	1122.143
651.166	1123.882
651.294	1118.202
651.422	1115.529
651.550	1118.975
651.678	1111.311
651.806	1115.723
651.935	1121.294
652.063	1112.916
652.191	1110.790
652.319	1115.303
652.447	1107.160
652.575	1101.824
652.703	1093.807
652.831	1103.269
652.960	1103.504
653.088	1092.815
653.216	1093.261
653.344	1096.025
653.472	1108.630
653.600	1096.303
653.728	1094.101
653.856	1088.244
653.985	1102.345
654.113	1099.328
654.241	1103.471
654.369	1087.126
654.497	1107.034
654.625	1098.588
654.753	1092.714
654.881	1090.067
655.010	1098.504
655.138	1094.630
655.266	1095.403
655.394	1079.832
655.522	1082.387
655.650	1082.630
655.778	1087.714
655.906	1084.235
656.035	1087.882
656.163	1079.891
656.291	1092.723
656.419	1080.571
656.547	1085.395
656.675	1073.748
656.803	1087.176
656.931	1085.824
657.060	1077.261
657.188	1079.975
657.316	1082.479
657.444	1086.840
657.572	1083.353
657.700	1086.471
657.828	1074.143
657.956	1079.941
658.085	1085.857
658.213	1074.496
658.341	1074.025
658.469	1075.378
658.597	1080.908
658.725	1085.807
658.853	1080.126
658.981	1073.101
659.110	1079.361
659.238	1082.958
659.366	1080.042
659.494	1068.546
659.622	1075.571
659.750	1078.849
659.878	1078.471
660.006	1079.294
660.135	1077.210
660.263	1067.479
660.391	1065.210
660.519	1066.328
660.647	1070.958
660.775	1073.597
660.903	1061.798
661.031	1063.916
661.160	1069.151
661.288	1072.504
661.416	1073.647
661.544	1071.261
661.672	1069.899
661.800	1070.731
661.928	1065.076
662.056	1058.076
662.185	1058.008
662.313	1058.664
662.441	1064.714
662.569	1065.782
662.697	1067.630
662.825	1063.588
662.953	1064.815
663.081	1061.723
663.210	1065.647
663.338	1069.218
663.466	1068.202
663.594	1050.689
663.722	1053.059
663.850	1056.697
663.978	1049.395
664.106	1060.252
664.235	1055.765
664.363	1064.403
664.491	1048.664
664.619	1057.840
664.747	1061.017
664.875	1059.101
665.003	1052.765
665.131	1071.084
665.260	1061.975
665.388	1042.210
665.516	1055.151
665.644	1054.958
665.772	1057.227
665.900	1053.370
666.028	1058.513
666.156	1049.639
666.285	1053.496
666.413	1054.218
666.541	1048.118
666.669	1055.462
666.797	1044.092
666.925	1043.294
667.053	1054.420
667.181	1040.084
667.310	1041.555
667.438	1048.899
667.566	1038.479
667.694	1047.639
667.822	1049.042
667.950	1043.218
668.078	1047.630
668.206	1040.933
668.335	1042.546
668.463	1049.000
668.591	1033.462
668.719	1042.193
668.847	1035.227
668.975	1031.235
669.103	1038.252
669.231	1045.000
669.360	1038.924
669.488	1043.605
669.616	1038.176
669.744	1043.782
669.872	1028.824
670.000	1041.681
670.128	1031.840
670.256	1030.782
670.385	1032.319
670.513	1041.874
670.641	1025.134
670.769	1027.084
670.897	1032.134
671.025	1024.756
671.153	1032.261
671.281	1036.782
671.410	1031.983
671.538	1029.286
671.666	1029.403
671.794	1030.126
671.922	1022.034
672.050	1023.227
672.178	1024.395
672.306	1008.555
672.435	1013.849
672.563	1027.630
672.691	1018.529
672.819	1025.597
672.947	1012.252
673.075	1008.336
673.203	1007.235
673.331	1010.597
673.460	1002.647
673.588	1009.555
673.716	1012.252
673.844	1008.067
673.972	1021.185
674.100	1004.975
674.228	1008.412
674.356	1004.689
674.485	1000.017
674.613	993.244
674.741	997.664
674.869	999.092
674.997	995.723
675.125	990.151
675.253	981.739
675.381	990.933
675.510	984.773
675.638	986.050
675.766	986.244
675.894	983.345
676.022	982.882
676.150	971.017
676.278	985.134
676.406	974.496
676.535	972.420
676.663	966.824
676.791	964.563
676.919	966.849
677.047	969.092
677.175	958.059
677.303	961.227
677.431	957.303
677.560	956.899
677.688	958.555
677.816	952.639
677.944	954.866
678.072	951.235
678.200	953.193
678.328	936.034
678.456	942.723
678.585	938.655
678.713	946.487
678.841	935.622
678.969	939.454
679.097	936.101
679.225	933.815
679.353	934.655
679.481	926.076
679.610	936.252
679.738	927.580
679.866	930.076
679.994	931.244
680.122	922.227
680.250	918.908
680.378	924.218
680.506	912.328
680.635	908.227
680.763	920.756
680.891	910.647
681.019	917.513
681.147	915.387
681.275	895.000
681.403	898.739
681.531	902.731
681.660	902.521
681.788	899.134
681.916	903.479
682.044	907.059
682.172	897.815
682.300	892.706
682.428	897.882
682.556	893.034
682.685	890.218
682.813	895.218
682.941	887.815
683.069	887.908
683.197	890.235
683.325	873.042
683.453	883.706
683.581	877.681
683.710	877.479
683.838	877.176
683.966	883.908
684.094	880.857
684.222	878.824
684.350	875.950
684.478	883.395
684.606	876.824
684.735	871.832
684.863	883.084
684.991	869.168
685.119	870.277
685.247	867.412
685.375	861.487
685.503	869.664
685.631	869.555
685.760	866.681
685.888	862.899
686.016	865.050
686.144	871.395
686.272	863.378
686.400	864.966
686.528	861.630
686.656	863.210
686.785	855.286
686.913	870.017
687.041	856.639
687.169	853.580
687.297	860.277
687.425	850.739
687.553	848.353
687.681	857.580
687.810	854.471
687.938	841.798
688.066	852.126
688.194	862.294
688.322	848.328
688.450	846.681
688.578	852.555
688.706	851.395
688.835	843.479
688.963	851.571
689.091	851.546
689.219	842.286
689.347	841.445
689.475	845.042
689.603	839.353
689.731	845.756
689.860	841.185
689.988	846.067
690.116	846.387
690.244	841.555
690.372	844.210
690.500	837.933
690.628	840.462
690.756	834.950
690.885	840.294
691.013	831.261
691.141	836.782
691.269	838.521
691.397	840.168
691.525	844.420
691.653	840.286
691.781	831.202
691.910	829.471
692.038	825.958
692.166	825.546
692.294	827.597
692.422	823.252
692.550	835.403
692.678	827.908
692.806	826.672
692.935	829.025
693.063	818.538
693.191	812.529
693.319	820.521
693.447	815.782
693.575	819.361
693.703	814.345
693.831	821.891
693.960	819.950
694.088	821.067
694.216	810.882
694.344	812.185
694.472	820.773
694.600	813.824
694.728	805.261
694.856	804.269
694.985	814.504
695.113	802.059
695.241	800.462
695.369	803.319
695.497	801.336
695.625	804.235
695.753	798.109
695.881	794.210
696.010	796.202
696.138	787.765
696.266	792.118
696.394	789.555
696.522	789.101
696.650	783.647
696.778	782.941
696.906	782.454
697.035	780.580
697.163	776.176
697.291	780.151
697.419	777.143
697.547	769.647
697.675	775.000
697.803	767.370
697.931	771.824
698.060	773.151
698.188	761.513
698.316	763.034
698.444	761.462
698.572	759.899
698.700	769.697
698.828	756.143
698.956	754.336
699.085	746.941
699.213	743.109
699.341	749.681
699.469	751.874
699.597	754.454
699.725	742.227
699.853	738.118
699.981	745.580
700.110	741.975
700.238	741.084
700.366	733.773
700.494	732.210
700.622	733.597
700.750	721.252
700.878	736.597
701.006	724.672
701.135	734.866
701.263	733.555
701.391	719.723
701.519	727.748
701.647	727.798
701.775	720.798
701.903	719.345
702.031	722.950
702.160	724.983
702.288	719.084
702.416	716.908
702.544	713.067
702.672	712.118
702.800	712.924
702.928	709.252
703.056	715.681
703.185	704.269
703.313	709.496
703.441	710.160
703.569	701.513
703.697	710.412
703.825	703.765
703.953	706.067
704.081	695.345
704.210	695.454
704.338	697.588
704.466	693.059
704.594	698.555
704.722	692.277
704.850	698.202
704.978	687.008
705.106	690.563
705.235	683.420
705.363	682.277
705.491	688.134
705.619	683.563
705.747	678.815
705.875	680.345
706.003	667.630
706.131	680.277
706.260	672.471
706.388	674.261
706.516	667.412
706.644	660.622
706.772	673.983
706.900	657.588
707.028	668.563
707.156	659.042
707.285	662.227
707.413	658.941
707.541	654.420
707.669	660.765
707.797	652.252
707.925	650.143
708.053	652.269
708.181	650.723
708.310	648.513
708.438	650.588
708.566	644.580
708.694	644.613
708.822	647.084
708.950	640.496
709.078	633.824
709.206	632.303
709.335	639.017
709.463	634.000
709.591	634.874
709.719	625.387
709.847	627.874
709.975	624.882
710.103	627.176
710.231	622.966
710.360	618.437
710.488	615.328
710.616	619.328
710.744	615.664
710.872	615.597
711.000	611.168
711.128	606.050
711.256	608.118
711.385	611.353
711.513	601.042
711.641	610.387
711.769	602.513
711.897	603.748
712.025	600.597
712.153	598.597
712.281	603.118
712.410	596.655
712.538	604.244
712.666	589.832
712.794	590.538
712.922	597.681
713.050	594.487
713.178	586.849
713.306	589.580
713.435	584.966
713.563	587.874
713.691	584.975
713.819	586.916
713.947	579.672
714.075	577.571
714.203	580.529
714.331	578.723
714.460	578.294
714.588	573.697
714.716	572.756
714.844	573.672
714.972	568.462
715.100	569.076
715.228	570.286
715.356	569.202
715.485	568.849
715.613	565.555
715.741	564.042
715.869	565.143
715.997	556.092
716.125	559.689
716.253	559.361
716.381	564.319
716.510	561.303
716.638	560.513
716.766	557.395
716.894	557.807
717.022	556.983
717.150	558.395
717.278	552.210
717.406	552.235
717.535	553.353
717.663	552.613
717.791	554.168
717.919	547.235
718.047	544.782
718.175	548.345
718.303	548.160
718.431	540.160
718.560	546.176
718.688	547.748
718.816	544.639
718.944	542.143
719.072	550.563
719.200	539.731
719.328	543.521
719.456	539.462
719.585	537.723
719.713	539.563
719.841	534.109
719.969	530.798
720.097	529.588
720.225	532.874
720.353	532.588
720.481	528.160
720.610	530.261
720.738	527.487
720.866	526.378
720.994	525.487
721.122	525.597
721.250	528.252
721.378	522.630
721.506	524.513
721.635	521.933
721.763	521.605
721.891	516.756
722.019	517.941
722.147	519.185
722.275	517.471
722.403	510.378
722.531	512.387
722.660	511.857
722.788	508.109
722.916	512.034
723.044	514.429
723.172	507.202
723.300	507.445
723.428	507.336
723.556	505.555
723.685	505.773
723.813	503.378
723.941	501.950
724.069	506.092
724.197	502.555
724.325	492.538
724.453	497.311
724.581	492.899
724.710	496.235
724.838	487.992
724.966	483.748
725.094	489.479
725.222	488.042
725.350	484.933
725.478	482.832
725.606	488.412
725.735	483.017
725.863	480.807
725.991	472.151
726.119	478.294
726.247	478.630
726.375	479.824
726.503	475.975
726.631	470.092
726.760	470.924
726.888	473.630
727.016	466.966
727.144	467.975
727.272	468.017
727.400	462.286
727.528	462.866
727.656	460.462
727.785	454.311
727.913	459.874
728.041	452.143
728.169	469.261
728.297	457.370
728.425	455.034
728.553	456.067
728.681	454.345
728.810	452.983
728.938	446.899
729.066	446.782
729.194	450.235
729.322	441.891
729.450	445.471
729.578	445.597
729.706	443.336
729.835	443.891
729.963	444.042
730.091	436.849
730.219	439.555
730.347	435.849
730.475	434.286
730.603	432.176
730.731	439.798
730.860	432.689
730.988	430.958
731.116	432.076
731.244	427.891
731.372	425.042
731.500	429.613
731.628	426.874
731.756	427.269
731.885	423.017
732.013	427.538
732.141	421.630
732.269	418.857
732.397	422.958
732.525	416.630
732.653	419.210
732.781	415.958
732.910	425.176
733.038	417.588
733.166	414.328
733.294	413.471
733.422	414.487
733.550	411.084
733.678	409.160
733.806	412.815
733.935	408.857
734.063	404.479
734.191	407.437
734.319	401.529
734.447	407.891
734.575	402.202
734.703	401.857
734.831	403.571
734.960	399.916
735.088	401.429
735.216	397.504
735.344	398.471
735.472	398.756
735.600	395.622
735.728	394.034
735.856	393.723
735.985	393.286
736.113	391.118
736.241	392.664
736.369	390.908
736.497	389.059
736.625	387.908
736.753	389.966
736.881	386.706
737.010	386.345
737.138	380.496
737.266	382.798
737.394	384.269
737.522	382.487
737.650	384.252
737.778	381.496
737.906	374.832
738.035	376.134
738.163	380.403
738.291	377.756
738.419	374.756
738.547	376.857
738.675	380.555
738.803	371.840
738.931	368.790
739.060	373.689
739.188	370.916
739.316	372.891
739.444	369.303
739.572	367.092
739.700	364.185
739.828	367.277
739.956	369.252
740.085	369.613
740.213	368.017
740.341	357.076
740.469	364.933
740.597	363.042
740.725	364.084
740.853	360.403
740.981	363.227
741.110	358.420
741.238	361.319
741.366	360.714
741.494	360.983
741.622	360.025
741.750	364.420
741.878	360.193
742.006	355.008
742.135	353.487
742.263	357.134
742.391	350.630
742.519	359.496
742.647	353.395
742.775	354.227
742.903	352.891
743.031	354.227
743.160	351.017
743.288	353.899
743.416	347.655
743.544	349.101
743.672	350.807
743.800	350.109
743.928	344.874
744.056	346.328
744.185	346.286
744.313	346.731
744.441	340.479
744.569	343.790
744.697	336.168
744.825	347.538
744.953	344.655
745.081	341.983
745.210	342.983
745.338	340.647
745.466	341.521
745.594	338.815
745.722	341.017
745.850	338.420
745.978	334.723
746.106	339.513
746.235	337.059
746.363	338.555
746.491	337.092
746.619	332.563
746.747	330.891
746.875	333.891
747.003	329.202
747.131	336.714
747.260	325.454
747.388	326.218
747.516	328.613
747.644	328.370
747.772	328.286
747.900	326.782
748.028	326.992
748.156	318.882
748.285	327.025
748.413	323.261
748.541	326.034
748.669	316.529
748.797	317.294
748.925	319.269
749.053	321.429
749.181	316.454
749.310	317.378
749.438	319.891
749.566	317.429
749.694	315.345
749.822	315.050
749.950	314.235
750.078	311.479
750.206	310.790
750.335	314.303
750.463	313.563
750.591	311.076
750.719	308.185
750.847	307.933
750.975	307.597
751.103	303.857
751.231	302.429
751.360	301.319
751.488	304.008
751.616	301.328
751.744	301.059
751.872	301.361
752.000	297.084
752.128	300.034
752.256	299.370
752.385	293.748
752.513	296.706
752.641	290.899
752.769	297.168
752.897	292.092
753.025	286.588
753.153	291.370
753.281	291.521
753.410	290.815
753.538	288.513
753.666	288.084
753.794	286.025
753.922	286.597
754.050	282.655
754.178	284.748
754.306	284.992
754.435	281.655
754.563	281.731
754.691	277.176
754.819	278.244
754.947	280.143
755.075	278.345
755.203	281.798
755.331	278.748
755.460	274.269
755.588	277.790
755.716	275.050
755.844	272.613
755.972	273.513
756.100	276.723
756.228	272.958
756.356	270.185
756.485	275.361
756.613	273.210
756.741	268.849
756.869	271.403
756.997	267.361
757.125	270.286
757.253	266.387
757.381	267.193
757.510	265.849
757.638	267.546
757.766	263.782
757.894	259.782
758.022	264.731
758.150	262.286
758.278	263.815
758.406	259.210
758.535	261.067
758.663	258.445
758.791	258.706
758.919	262.261
759.047	258.958
759.175	255.101
759.303	257.059
759.431	254.017
759.560	254.134
759.688	256.277
759.816	253.992
759.944	258.941
760.072	253.471
760.200	254.025
760.328	254.303
760.456	252.235
760.585	249.555
760.713	250.790
760.841	250.109
760.969	251.017
761.097	248.370
761.225	247.924
761.353	244.151
761.481	246.681
761.610	246.076
761.738	244.353
761.866	245.807
761.994	244.714
762.122	241.664
762.250	245.924
762.378	242.975
762.506	239.261
762.635	241.311
762.763	240.908
762.891	243.168
763.019	241.353
763.147	245.462
763.275	239.101
763.403	236.479
763.531	236.101
763.660	235.504
763.788	236.882
763.916	239.874
764.044	237.017
764.172	234.252
764.300	236.017
764.428	235.521
764.556	233.546
764.685	233.815
764.813	234.059
764.941	231.303
765.069	230.639
765.197	230.235
765.325	228.445
765.453	226.664
765.581	231.361
765.710	228.277
765.838	230.151
765.966	229.286
766.094	227.571
766.222	227.378
766.350	224.563
766.478	227.454
766.606	224.899
766.735	225.319
766.863	221.445
766.991	222.824
767.119	225.529
767.247	220.874
767.375	221.908
767.503	219.193
767.631	224.487
767.760	220.992
767.888	220.353
768.016	220.471
768.144	219.143
768.272	215.958
768.400	221.521
768.528	218.202
768.656	215.067
768.785	215.269
768.913	217.353
769.041	217.672
769.169	212.647
769.297	212.840
769.425	213.303
769.553	215.983
769.681	214.487
769.810	216.546
769.938	211.336
770.066	212.101
770.194	213.462
770.322	211.563
770.450	211.773
770.578	209.353
770.706	212.597
770.835	210.387
770.963	212.185
771.091	210.899
771.219	208.790
771.347	209.034
771.475	207.429
771.603	209.168
771.731	209.202
771.860	208.454
771.988	205.647
772.116	210.454
772.244	204.983
772.372	205.840
772.500	203.521
772.628	205.395
772.756	204.664
772.885	205.874
773.013	203.992
773.141	204.227
773.269	202.101
773.397	201.933
773.525	201.471
773.653	200.765
773.781	201.067
773.910	201.218
774.038	196.487
774.166	202.630
774.294	197.933
774.422	196.269
774.550	200.252
774.678	198.790
774.806	198.370
774.935	199.798
775.063	195.059
775.191	196.798
775.319	196.261
775.447	196.034
775.575	195.874
775.703	193.941
775.831	195.840
775.960	190.218
776.088	194.840
776.216	194.092
776.344	191.723
776.472	195.277
776.600	192.580
776.728	191.076
776.856	189.479
776.985	193.210
777.113	189.143
777.241	189.210
777.369	189.025
777.497	187.319
777.625	187.874
777.753	186.782
777.881	187.429
778.010	183.815
778.138	186.739
778.266	183.244
778.394	184.269
778.522	185.874
778.650	185.252
778.778	183.235
778.906	182.908
779.035	183.899
779.163	182.076
779.291	183.210
779.419	182.941
779.547	182.891
779.675	182.807
779.803	182.244
779.931	181.529
780.060	181.000
780.188	176.790
780.316	178.294
780.444	180.874
780.572	178.588
780.700	181.168
780.828	178.874
780.956	177.118
781.085	176.647
781.213	175.773
781.341	178.622
781.469	176.765
781.597	175.529
781.725	176.101
781.853	174.328
781.981	172.336
782.110	174.269
782.238	173.849
782.366	174.958
782.494	170.378
782.622	172.303
782.750	175.563
782.878	172.168
783.006	171.008
783.135	170.975
783.263	169.244
783.391	169.092
783.519	170.261
783.647	170.084
783.775	168.185
783.903	166.639
784.031	166.672
784.160	166.538
784.288	166.168
784.416	167.244
784.544	162.563
784.672	162.782
784.800	165.429
784.928	164.126
785.056	165.345
785.185	162.975
785.313	161.496
785.441	162.319
785.569	163.218
785.697	163.571
785.825	161.916
785.953	162.168
786.081	160.445
786.210	161.529
786.338	161.370
786.466	160.059
786.594	159.134
786.722	159.866
786.850	160.050
786.978	156.689
787.106	157.933
787.235	154.966
787.363	159.101
787.491	159.261
787.619	153.664
787.747	157.445
787.875	154.765
788.003	153.815
788.131	155.689
788.260	156.143
788.388	155.454
788.516	152.185
788.644	154.605
788.772	152.832
788.900	154.303
789.028	151.303
789.156	151.571
789.285	150.504
789.413	151.748
789.541	151.597
789.669	148.353
789.797	149.429
789.925	150.672
790.053	150.109
790.181	150.630
790.310	148.630
790.438	149.992
790.566	146.782
790.694	146.681
790.822	148.924
790.950	146.420
791.078	145.445
791.206	144.672
791.335	144.521
791.463	146.765
791.591	146.714
791.719	145.294
791.847	145.664
791.975	141.773
792.103	144.118
792.231	144.454
792.360	143.319
792.488	144.059
792.616	142.655
792.744	145.210
792.872	141.866
793.000	142.118
793.128	140.269
793.256	141.639
793.385	139.714
793.513	141.126
793.641	143.538
793.769	138.622
793.897	139.899
794.025	141.042
794.153	140.118
794.281	143.076
794.410	137.193
794.538	141.336
794.666	138.689
794.794	138.613
794.922	138.151
795.050	137.672
795.178	137.782
795.306	138.613
795.435	137.395
795.563	138.218
795.691	133.529
795.819	135.891
795.947	136.420
796.075	135.664
796.203	137.908
796.331	135.555
796.460	135.471
796.588	134.227
796.716	132.798
796.844	135.950
796.972	133.798
797.100	134.008
797.228	135.605
797.356	134.992
797.485	133.697
797.613	133.261
797.741	134.294
797.869	133.361
797.997	131.235
798.125	133.025
798.253	132.126
798.381	131.294
798.510	130.261
798.638	129.832
798.766	132.067
798.894	133.000
799.022	129.639
799.150	131.303
799.278	130.370
799.406	131.286
799.535	131.092
799.663	132.218
799.791	128.899
799.919	129.630
800.047	128.639
800.175	129.429
800.303	128.798
800.431	130.143
800.560	128.605
800.688	128.303
800.816	128.756
800.944	126.118
801.072	128.387
801.200	126.218
801.328	127.975
801.456	127.983
801.585	127.773
801.713	129.571
801.841	127.454
801.969	128.723
802.097	127.134
802.225	127.807
802.353	127.782
802.481	124.798
802.610	126.353
802.738	126.462
802.866	124.193
802.994	124.681
803.122	124.025
803.250	125.622
803.378	124.361
803.506	125.899
803.635	125.151
803.763	124.664
803.891	123.941
804.019	125.546
804.147	124.857
804.275	123.672
804.403	123.975
804.531	122.882
804.660	121.815
804.788	122.630
804.916	119.782
805.044	122.252
805.172	122.639
805.300	121.034
805.428	123.319
805.556	121.899
805.685	123.723
805.813	121.824
805.941	121.462
806.069	121.412
806.197	122.807
806.325	121.160
806.453	122.134
806.581	121.798
806.710	119.504
806.838	120.437
806.966	120.303
807.094	120.042
807.222	119.613
807.350	120.050
807.478	119.328
807.606	119.008
807.735	120.311
807.863	120.815
807.991	120.269
808.119	118.101
808.247	120.118
808.375	119.017
808.503	118.193
808.631	118.773
808.760	120.597
808.888	118.521
809.016	119.328
809.144	118.731
809.272	118.916
809.400	119.134
809.528	118.588
809.656	119.370
809.785	115.689
809.913	117.739
810.041	117.361
810.169	117.412
810.297	117.664
810.425	119.387
810.553	117.496
810.681	117.471
810.810	117.563
810.938	117.580
811.066	115.286
811.194	115.916
811.322	117.210
811.450	116.479
811.578	117.866
811.706	117.319
811.835	116.202
811.963	115.067
812.091	115.647
812.219	115.782
812.347	114.857
812.475	115.588
812.603	116.924
812.731	114.605
812.860	115.210
812.988	115.328
813.116	116.092
813.244	116.824
813.372	116.412
813.500	114.613
813.628	116.773
813.756	114.571
813.885	114.462
814.013	115.084
814.141	115.176
814.269	115.034
814.397	115.454
814.525	114.109
814.653	114.605
814.781	113.613
814.910	114.000
815.038	113.353
815.166	114.866
815.294	113.857
815.422	115.765
815.550	114.277
815.678	113.160
815.806	114.916
815.935	111.798
816.063	113.529
816.191	113.723
816.319	113.992
816.447	113.790
816.575	113.832
816.703	113.697
816.831	113.815
816.960	114.252
817.088	113.042
817.216	113.588
817.344	113.076
817.472	112.496
817.600	112.294
817.728	113.101
817.856	114.815
817.985	111.958
818.113	112.202
818.241	111.807
818.369	110.731
818.497	113.076
818.625	111.370
818.753	112.563
818.881	112.630
819.010	111.294
819.138	111.429
819.266	110.958
819.394	110.546
819.522	110.303
819.650	111.706
819.778	110.454
819.906	110.294
820.035	110.462
820.163	110.227
820.291	109.824
820.419	109.983
820.547	111.437
820.675	109.647
820.803	110.378
820.931	110.622
821.060	108.597
821.188	110.429
821.316	109.092
821.444	110.261
821.572	109.857
821.700	109.294
821.828	110.546
821.956	110.815
822.085	109.261
822.213	110.160
822.341	109.529
822.469	108.723
822.597	108.378
822.725	108.958
822.853	110.101
822.981	109.092
823.110	110.319
823.238	107.555
823.366	109.151
823.494	109.084
823.622	108.109
823.750	109.571
823.878	108.050
824.006	109.504
824.135	109.882
824.263	109.118
824.391	108.395
824.519	109.286
824.647	109.765
824.775	108.916
824.903	109.042
825.031	109.958
825.160	110.017
825.288	108.218
825.416	109.185
825.544	108.017
825.672	109.328
825.800	108.454
825.928	109.126
826.056	108.555
826.185	107.824
826.313	108.630
826.441	109.235
826.569	108.059
826.697	108.210
826.825	107.521
826.953	108.294
827.081	106.655
827.210	108.076
827.338	107.050
827.466	107.941
827.594	107.748
827.722	107.403
827.850	107.008
827.978	106.689
828.106	106.941
828.235	108.286
828.363	108.084
828.491	107.815
828.619	107.109
828.747	107.765
828.875	107.891
829.003	108.059
829.131	108.076
829.260	108.462
829.388	107.857
829.516	107.538
829.644	107.588
829.772	107.706
829.900	107.210
830.028	107.866
830.156	107.798
830.285	107.672
830.413	107.487
830.541	107.193
830.669	106.882
830.797	106.025
830.925	106.538
831.053	106.655
831.181	106.328
831.310	106.571
831.438	107.849
831.566	107.798
831.694	106.286
831.822	106.370
831.950	105.782
832.078	106.546
832.206	106.588
832.335	106.303
832.463	106.924
832.591	106.588
832.719	106.445
832.847	106.042
832.975	105.244
833.103	106.798
833.231	106.042
833.360	107.185
833.488	106.059
833.616	106.042
833.744	105.546
833.872	106.118
834.000	107.311
834.128	106.681
834.256	106.134
834.385	105.891
834.513	107.370
834.641	104.487
834.769	105.277
834.897	106.403
835.025	105.782
835.153	104.378
835.281	106.328
835.410	106.689
835.538	106.050
835.666	106.286
835.794	106.496
835.922	105.891
836.050	105.882
836.178	105.210
836.306	105.697
836.435	105.294
836.563	105.101
836.691	106.336
836.819	106.176
836.947	105.059
837.075	105.168
837.203	104.756
837.331	105.437
837.460	105.664
837.588	105.639
837.716	106.143
837.844	105.538
837.972	105.042
838.100	105.328
838.228	105.504
838.356	104.202
838.485	103.983
838.613	105.370
838.741	105.555
838.869	105.689
838.997	105.782
839.125	104.294
839.253	103.782
839.381	105.891
839.510	105.328
839.638	104.597
839.766	104.723
839.894	103.924
840.022	105.462
840.150	105.479
840.278	104.252
840.406	105.605
840.535	105.420
840.663	103.706
840.791	104.076
840.919	105.193
841.047	104.714
841.175	105.328
841.303	104.076
841.431	105.101
841.560	104.050
841.688	105.134
841.816	104.311
841.944	104.092
842.072	104.798
842.200	104.034
842.328	105.059
842.456	104.588
842.585	105.336
842.713	104.933
842.841	104.126
842.969	104.739
843.097	104.689
843.225	103.933
843.353	104.773
843.481	103.529
843.610	104.244
843.738	104.185
843.866	104.294
