70-110-90_at_679.99nm_cut_at_1283.50Y_01.dat
24.01.2024
11:31:53
cut middle at Y: 1283.50
top cursor: 1343 down cursor: 1224 mean of: 119 lines , 2560 datapoints
wavelength(nm)	intensity[arb. units]
515.994	544.807
516.122	517.706
516.250	502.840
516.378	502.790
516.506	501.714
516.635	496.471
516.763	505.227
516.891	507.504
517.019	507.908
517.147	506.429
517.275	509.891
517.403	506.790
517.531	506.882
517.660	508.807
517.788	507.874
517.916	507.546
518.044	502.580
518.172	508.387
518.300	504.941
518.428	507.832
518.556	510.504
518.685	512.311
518.813	514.336
518.941	515.151
519.069	507.983
519.197	510.303
519.325	515.824
519.453	516.412
519.581	515.202
519.710	517.319
519.838	518.361
519.966	515.387
520.094	522.261
520.222	517.370
520.350	524.664
520.478	526.639
520.606	531.639
520.735	524.269
520.863	528.756
520.991	520.941
521.119	528.655
521.247	531.664
521.375	529.824
521.503	532.328
521.631	537.092
521.760	531.185
521.888	538.084
522.016	536.420
522.144	535.269
522.272	537.824
522.400	537.429
522.528	539.504
522.656	539.286
522.785	543.361
522.913	543.555
523.041	537.487
523.169	537.126
523.297	542.319
523.425	541.899
523.553	545.261
523.681	540.639
523.810	546.639
523.938	546.613
524.066	542.168
524.194	544.546
524.322	548.815
524.450	550.697
524.578	542.832
524.706	552.227
524.835	544.748
524.963	549.277
525.091	544.370
525.219	547.067
525.347	539.866
525.475	547.891
525.603	552.748
525.731	546.361
525.860	549.328
525.988	544.857
526.116	543.059
526.244	549.899
526.372	541.261
526.500	550.185
526.628	549.832
526.756	546.487
526.885	544.933
527.013	550.252
527.141	548.840
527.269	550.294
527.397	554.370
527.525	559.168
527.653	549.479
527.781	541.546
527.910	548.681
528.038	552.429
528.166	554.176
528.294	556.992
528.422	556.597
528.550	560.454
528.678	557.748
528.806	556.773
528.935	560.924
529.063	557.513
529.191	564.101
529.319	561.370
529.447	564.042
529.575	566.176
529.703	563.168
529.831	564.672
529.960	565.176
530.088	564.706
530.216	568.412
530.344	564.513
530.472	568.479
530.600	569.176
530.728	570.958
530.856	574.160
530.985	569.924
531.113	567.714
531.241	571.916
531.369	575.437
531.497	572.403
531.625	575.571
531.753	567.588
531.881	575.571
532.010	574.513
532.138	569.546
532.266	572.286
532.394	568.975
532.522	565.597
532.650	573.588
532.778	575.739
532.906	571.958
533.035	572.118
533.163	570.319
533.291	573.277
533.419	566.353
533.547	572.319
533.675	571.244
533.803	564.975
533.931	568.000
534.060	581.471
534.188	569.882
534.316	579.101
534.444	572.647
534.572	570.151
534.700	571.361
534.828	571.765
534.956	576.950
535.085	568.924
535.213	574.227
535.341	574.303
535.469	568.739
535.597	574.571
535.725	576.286
535.853	580.092
535.981	578.529
536.110	585.731
536.238	583.185
536.366	590.496
536.494	576.513
536.622	588.395
536.750	590.739
536.878	590.395
537.006	595.218
537.135	589.975
537.263	592.000
537.391	596.706
537.519	590.403
537.647	600.672
537.775	594.319
537.903	594.261
538.031	597.790
538.160	597.303
538.288	603.546
538.416	602.765
538.544	600.496
538.672	600.504
538.800	606.756
538.928	606.647
539.056	604.328
539.185	607.714
539.313	601.723
539.441	603.420
539.569	605.134
539.697	603.950
539.825	614.076
539.953	609.193
540.081	601.235
540.210	601.924
540.338	605.605
540.466	613.025
540.594	609.017
540.722	606.017
540.850	607.899
540.978	607.874
541.106	616.840
541.235	608.882
541.363	602.798
541.491	614.908
541.619	607.756
541.747	609.916
541.875	612.101
542.003	606.345
542.131	611.538
542.260	615.513
542.388	606.672
542.516	605.143
542.644	612.462
542.772	607.765
542.900	604.975
543.028	613.496
543.156	610.025
543.285	613.983
543.413	607.277
543.541	613.580
543.669	608.059
543.797	613.672
543.925	617.891
544.053	614.966
544.181	615.613
544.310	613.941
544.438	608.042
544.566	616.639
544.694	619.529
544.822	620.143
544.950	619.479
545.078	614.277
545.206	618.101
545.335	618.437
545.463	616.067
545.591	614.084
545.719	623.067
545.847	621.311
545.975	623.958
546.103	616.908
546.231	617.487
546.360	623.782
546.488	623.109
546.616	629.655
546.744	627.227
546.872	628.714
547.000	626.445
547.128	622.462
547.256	624.252
547.385	628.933
547.513	626.227
547.641	627.933
547.769	632.555
547.897	628.824
548.025	631.874
548.153	632.445
548.281	621.950
548.410	630.008
548.538	631.773
548.666	632.185
548.794	632.143
548.922	636.866
549.050	634.218
549.178	629.992
549.306	635.958
549.435	640.277
549.563	635.008
549.691	628.874
549.819	641.185
549.947	639.084
550.075	633.504
550.203	627.714
550.331	628.739
550.460	636.866
550.588	630.840
550.716	637.580
550.844	635.445
550.972	630.050
551.100	631.647
551.228	637.336
551.356	627.118
551.485	635.798
551.613	627.008
551.741	631.361
551.869	628.975
551.997	622.277
552.125	623.655
552.253	621.983
552.381	618.134
552.510	623.218
552.638	613.092
552.766	621.252
552.894	620.412
553.022	625.840
553.150	619.227
553.278	615.303
553.406	621.908
553.535	610.975
553.663	618.857
553.791	619.244
553.919	615.017
554.047	623.555
554.175	616.084
554.303	615.824
554.431	613.605
554.560	612.050
554.688	622.681
554.816	618.824
554.944	618.983
555.072	618.555
555.200	621.328
555.328	620.689
555.456	627.588
555.585	618.571
555.713	620.866
555.841	620.739
555.969	622.933
556.097	629.185
556.225	631.269
556.353	628.076
556.481	631.454
556.610	634.983
556.738	638.924
556.866	638.681
556.994	631.218
557.122	631.084
557.250	630.866
557.378	637.513
557.506	632.084
557.635	639.840
557.763	631.143
557.891	642.756
558.019	640.824
558.147	637.941
558.275	641.681
558.403	652.311
558.531	646.387
558.660	641.244
558.788	642.479
558.916	643.176
559.044	635.975
559.172	647.765
559.300	654.529
559.428	646.294
559.556	651.353
559.685	649.941
559.813	650.664
559.941	652.336
560.069	656.622
560.197	651.555
560.325	657.151
560.453	647.790
560.581	652.538
560.710	647.714
560.838	651.336
560.966	651.017
561.094	657.378
561.222	655.916
561.350	652.798
561.478	642.672
561.606	656.303
561.735	653.118
561.863	650.252
561.991	651.261
562.119	654.689
562.247	653.739
562.375	660.294
562.503	656.336
562.631	650.277
562.760	653.857
562.888	646.269
563.016	655.235
563.144	653.134
563.272	659.429
563.400	648.840
563.528	648.277
563.656	655.084
563.785	649.756
563.913	652.706
564.041	642.017
564.169	644.277
564.297	648.655
564.425	649.143
564.553	654.630
564.681	649.504
564.810	649.622
564.938	658.277
565.066	649.613
565.194	651.521
565.322	654.504
565.450	650.202
565.578	657.731
565.706	655.866
565.835	655.571
565.963	653.277
566.091	656.378
566.219	660.597
566.347	651.017
566.475	660.244
566.603	656.487
566.731	665.059
566.860	663.580
566.988	664.454
567.116	666.916
567.244	668.059
567.372	670.050
567.500	671.437
567.628	665.681
567.756	669.076
567.885	675.597
568.013	672.227
568.141	672.269
568.269	675.681
568.397	674.076
568.525	681.420
568.653	683.185
568.781	682.824
568.910	688.697
569.038	697.303
569.166	685.866
569.294	684.244
569.422	690.815
569.550	691.933
569.678	689.151
569.806	697.336
569.935	698.950
570.063	697.723
570.191	705.067
570.319	702.067
570.447	702.017
570.575	701.445
570.703	705.731
570.831	707.193
570.960	706.529
571.088	706.261
571.216	714.429
571.344	715.118
571.472	713.748
571.600	724.538
571.728	719.681
571.856	712.370
571.985	719.849
572.113	723.479
572.241	727.521
572.369	722.874
572.497	721.319
572.625	728.891
572.753	720.269
572.881	732.950
573.010	730.000
573.138	733.252
573.266	727.504
573.394	738.832
573.522	735.672
573.650	735.176
573.778	732.916
573.906	728.513
574.035	735.252
574.163	729.824
574.291	738.983
574.419	735.563
574.547	742.496
574.675	739.151
574.803	741.227
574.931	736.210
575.060	742.437
575.188	744.571
575.316	746.244
575.444	741.269
575.572	747.479
575.700	733.555
575.828	748.672
575.956	746.143
576.085	737.361
576.213	746.840
576.341	738.798
576.469	747.000
576.597	744.118
576.725	741.261
576.853	738.899
576.981	735.218
577.110	736.983
577.238	745.504
577.366	737.588
577.494	744.378
577.622	743.160
577.750	744.588
577.878	743.622
578.006	747.286
578.135	744.950
578.263	743.202
578.391	751.950
578.519	748.025
578.647	748.462
578.775	743.975
578.903	742.487
579.031	742.059
579.160	746.647
579.288	740.975
579.416	750.882
579.544	739.134
579.672	754.210
579.800	758.958
579.928	751.689
580.056	751.345
580.185	743.050
580.313	748.647
580.441	755.487
580.569	750.874
580.697	742.832
580.825	754.429
580.953	759.353
581.081	751.387
581.210	761.664
581.338	761.101
581.466	764.151
581.594	770.202
581.722	766.849
581.850	765.235
581.978	768.059
582.106	769.538
582.235	768.025
582.363	767.370
582.491	769.975
582.619	770.882
582.747	779.311
582.875	782.479
583.003	782.076
583.131	784.655
583.260	777.866
583.388	790.462
583.516	791.765
583.644	791.815
583.772	798.353
583.900	802.185
584.028	801.555
584.156	800.345
584.285	808.336
584.413	799.597
584.541	812.504
584.669	817.849
584.797	815.387
584.925	812.202
585.053	819.941
585.181	822.681
585.310	823.807
585.438	821.143
585.566	823.059
585.694	837.101
585.822	838.118
585.950	831.328
586.078	839.504
586.206	848.084
586.335	837.403
586.463	843.882
586.591	856.101
586.719	846.034
586.847	855.908
586.975	852.538
587.103	853.941
587.231	857.176
587.360	859.050
587.488	856.101
587.616	861.076
587.744	868.782
587.872	862.597
588.000	860.050
588.128	871.412
588.256	873.588
588.385	869.597
588.513	873.706
588.641	870.933
588.769	876.092
588.897	874.252
589.025	866.849
589.153	872.773
589.281	878.697
589.410	879.134
589.538	884.092
589.666	882.513
589.794	883.496
589.922	893.496
590.050	889.807
590.178	876.420
590.306	886.630
590.435	883.202
590.563	880.647
590.691	894.025
590.819	888.748
590.947	904.361
591.075	889.496
591.203	894.403
591.331	895.193
591.460	900.403
591.588	901.613
591.716	912.891
591.844	909.076
591.972	905.513
592.100	904.160
592.228	909.782
592.356	908.857
592.485	903.042
592.613	909.034
592.741	915.496
592.869	911.420
592.997	923.866
593.125	924.992
593.253	926.227
593.381	919.479
593.510	929.672
593.638	921.504
593.766	926.739
593.894	930.933
594.022	922.798
594.150	926.824
594.278	944.378
594.406	932.908
594.535	945.042
594.663	948.849
594.791	946.874
594.919	937.924
595.047	955.824
595.175	952.059
595.303	955.546
595.431	953.328
595.560	962.840
595.688	961.361
595.816	957.538
595.944	968.084
596.072	976.899
596.200	970.403
596.328	974.050
596.456	968.269
596.585	978.983
596.713	984.000
596.841	978.160
596.969	978.908
597.097	987.647
597.225	997.437
597.353	999.462
597.481	997.924
597.610	996.857
597.738	1003.311
597.866	998.050
597.994	1005.647
598.122	1021.765
598.250	1010.647
598.378	1013.168
598.506	1017.126
598.635	1018.160
598.763	1020.882
598.891	1017.697
599.019	1023.765
599.147	1018.445
599.275	1030.790
599.403	1031.588
599.531	1033.252
599.660	1031.487
599.788	1042.731
599.916	1035.487
600.044	1045.395
600.172	1039.034
600.300	1045.487
600.428	1043.487
600.556	1055.008
600.685	1057.395
600.813	1063.294
600.941	1069.975
601.069	1065.899
601.197	1074.975
601.325	1070.798
601.453	1077.134
601.581	1082.597
601.710	1079.588
601.838	1090.563
601.966	1085.454
602.094	1100.193
602.222	1089.311
602.350	1091.924
602.478	1096.210
602.606	1105.605
602.735	1111.160
602.863	1128.849
602.991	1121.639
603.119	1126.454
603.247	1132.143
603.375	1131.034
603.503	1123.462
603.631	1146.261
603.760	1145.782
603.888	1147.773
604.016	1154.050
604.144	1141.555
604.272	1151.765
604.400	1157.176
604.528	1157.571
604.656	1171.992
604.785	1178.706
604.913	1175.160
605.041	1182.681
605.169	1183.084
605.297	1175.277
605.425	1195.050
605.553	1197.462
605.681	1189.975
605.810	1195.412
605.938	1191.891
606.066	1194.445
606.194	1214.756
606.322	1201.891
606.450	1212.151
606.578	1215.538
606.706	1217.202
606.835	1219.445
606.963	1224.361
607.091	1224.849
607.219	1220.756
607.347	1222.437
607.475	1240.353
607.603	1241.605
607.731	1242.378
607.860	1235.866
607.988	1240.975
608.116	1242.563
608.244	1235.269
608.372	1243.899
608.500	1242.050
608.628	1241.664
608.756	1241.857
608.885	1259.244
609.013	1256.723
609.141	1252.454
609.269	1266.496
609.397	1259.151
609.525	1264.882
609.653	1255.916
609.781	1265.101
609.910	1254.966
610.038	1256.269
610.166	1264.857
610.294	1259.983
610.422	1268.924
610.550	1267.639
610.678	1268.042
610.806	1282.672
610.935	1280.336
611.063	1272.328
611.191	1270.832
611.319	1275.462
611.447	1273.496
611.575	1280.462
611.703	1268.437
611.831	1278.824
611.960	1291.647
612.088	1275.731
612.216	1287.958
612.344	1297.504
612.472	1283.958
612.600	1290.218
612.728	1278.832
612.856	1289.496
612.985	1281.672
613.113	1298.345
613.241	1296.924
613.369	1295.479
613.497	1308.218
613.625	1300.487
613.753	1300.210
613.881	1299.840
614.010	1305.941
614.138	1303.345
614.266	1307.227
614.394	1301.361
614.522	1309.487
614.650	1336.487
614.778	1318.076
614.906	1340.882
615.035	1326.832
615.163	1315.555
615.291	1333.471
615.419	1339.000
615.547	1332.555
615.675	1342.235
615.803	1337.471
615.931	1356.891
616.060	1346.059
616.188	1358.647
616.316	1348.563
616.444	1354.387
616.572	1355.697
616.700	1350.252
616.828	1371.319
616.956	1390.706
617.085	1380.059
617.213	1379.437
617.341	1376.891
617.469	1382.689
617.597	1384.807
617.725	1392.210
617.853	1383.664
617.981	1403.017
618.110	1409.664
618.238	1404.378
618.366	1416.311
618.494	1419.118
618.622	1418.193
618.750	1419.353
618.878	1420.479
619.006	1428.874
619.135	1439.303
619.263	1445.613
619.391	1442.563
619.519	1440.353
619.647	1454.042
619.775	1450.277
619.903	1468.647
620.031	1464.143
620.160	1466.437
620.288	1469.370
620.416	1481.462
620.544	1488.328
620.672	1495.681
620.800	1487.664
620.928	1498.185
621.056	1493.420
621.185	1494.672
621.313	1503.622
621.441	1523.151
621.569	1534.765
621.697	1518.555
621.825	1544.151
621.953	1531.807
622.081	1542.437
622.210	1537.269
622.338	1552.504
622.466	1536.807
622.594	1558.496
622.722	1556.454
622.850	1565.328
622.978	1567.134
623.106	1559.008
623.235	1574.193
623.363	1570.790
623.491	1576.345
623.619	1573.782
623.747	1591.723
623.875	1591.370
624.003	1578.294
624.131	1590.252
624.260	1576.092
624.388	1606.412
624.516	1604.563
624.644	1600.689
624.772	1605.042
624.900	1617.420
625.028	1610.496
625.156	1633.563
625.285	1611.882
625.413	1627.605
625.541	1623.739
625.669	1612.378
625.797	1622.034
625.925	1631.689
626.053	1618.941
626.181	1645.580
626.310	1637.513
626.438	1633.017
626.566	1629.462
626.694	1637.916
626.822	1647.697
626.950	1645.353
627.078	1656.269
627.206	1651.714
627.335	1665.958
627.463	1664.487
627.591	1669.983
627.719	1654.395
627.847	1668.857
627.975	1669.706
628.103	1669.723
628.231	1661.580
628.360	1654.664
628.488	1679.849
628.616	1681.849
628.744	1668.647
628.872	1661.555
629.000	1675.975
629.128	1678.134
629.256	1702.546
629.385	1691.479
629.513	1670.555
629.641	1689.613
629.769	1683.672
629.897	1691.790
630.025	1686.000
630.153	1705.387
630.281	1695.353
630.410	1704.924
630.538	1705.479
630.666	1708.773
630.794	1696.714
630.922	1694.992
631.050	1698.252
631.178	1708.050
631.306	1707.874
631.435	1715.143
631.563	1717.908
631.691	1705.378
631.819	1712.622
631.947	1738.168
632.075	1725.613
632.203	1732.765
632.331	1728.395
632.460	1722.504
632.588	1725.529
632.716	1734.689
632.844	1727.983
632.972	1732.773
633.100	1748.109
633.228	1741.546
633.356	1737.420
633.485	1737.378
633.613	1744.437
633.741	1748.109
633.869	1747.521
633.997	1737.672
634.125	1738.613
634.253	1726.303
634.381	1738.697
634.510	1759.160
634.638	1732.832
634.766	1744.832
634.894	1736.748
635.022	1728.899
635.150	1746.403
635.278	1767.706
635.406	1746.008
635.535	1741.143
635.663	1750.176
635.791	1736.571
635.919	1761.529
636.047	1745.941
636.175	1738.370
636.303	1749.672
636.431	1764.639
636.560	1758.319
636.688	1760.849
636.816	1755.891
636.944	1749.235
637.072	1769.798
637.200	1746.739
637.328	1754.403
637.456	1755.193
637.585	1751.210
637.713	1771.176
637.841	1762.924
637.969	1759.555
638.097	1753.395
638.225	1764.504
638.353	1782.244
638.481	1774.353
638.610	1781.303
638.738	1771.773
638.866	1769.429
638.994	1775.218
639.122	1775.748
639.250	1777.429
639.378	1788.134
639.506	1773.412
639.635	1787.689
639.763	1771.361
639.891	1798.126
640.019	1784.824
640.147	1794.798
640.275	1787.000
640.403	1776.950
640.531	1788.420
640.660	1794.958
640.788	1804.160
640.916	1803.345
641.044	1817.924
641.172	1806.622
641.300	1814.630
641.428	1819.697
641.556	1826.286
641.685	1816.773
641.813	1797.084
641.941	1811.370
642.069	1817.521
642.197	1825.992
642.325	1816.017
642.453	1841.723
642.581	1833.429
642.710	1825.933
642.838	1828.361
642.966	1829.916
643.094	1836.580
643.222	1819.588
643.350	1832.328
643.478	1840.445
643.606	1851.168
643.735	1840.824
643.863	1825.882
643.991	1857.773
644.119	1847.790
644.247	1845.807
644.375	1855.664
644.503	1856.176
644.631	1863.605
644.760	1871.067
644.888	1864.429
645.016	1856.933
645.144	1867.160
645.272	1850.286
645.400	1864.588
645.528	1864.605
645.656	1855.025
645.785	1859.218
645.913	1872.992
646.041	1884.017
646.169	1849.202
646.297	1860.319
646.425	1873.378
646.553	1860.824
646.681	1856.983
646.810	1851.143
646.938	1869.025
647.066	1863.193
647.194	1865.874
647.322	1850.076
647.450	1846.134
647.578	1870.437
647.706	1845.185
647.835	1849.689
647.963	1852.235
648.091	1868.160
648.219	1848.933
648.347	1857.950
648.475	1851.034
648.603	1856.395
648.731	1858.782
648.860	1834.941
648.988	1847.866
649.116	1845.538
649.244	1829.672
649.372	1825.824
649.500	1828.765
649.628	1830.168
649.756	1832.118
649.885	1818.546
650.013	1814.672
650.141	1808.176
650.269	1800.866
650.397	1820.017
650.525	1803.269
650.653	1814.849
650.781	1805.328
650.910	1795.445
651.038	1776.118
651.166	1795.672
651.294	1770.597
651.422	1775.319
651.550	1759.017
651.678	1770.630
651.806	1759.824
651.935	1773.370
652.063	1753.563
652.191	1756.521
652.319	1760.126
652.447	1745.345
652.575	1744.235
652.703	1739.218
652.831	1730.294
652.960	1727.126
653.088	1730.882
653.216	1720.571
653.344	1721.286
653.472	1726.664
653.600	1718.303
653.728	1724.487
653.856	1712.420
653.985	1723.244
654.113	1712.126
654.241	1710.563
654.369	1694.403
654.497	1717.714
654.625	1701.824
654.753	1696.227
654.881	1702.294
655.010	1703.252
655.138	1694.126
655.266	1684.597
655.394	1671.361
655.522	1683.277
655.650	1666.908
655.778	1678.311
655.906	1681.555
656.035	1685.387
656.163	1664.034
656.291	1667.454
656.419	1674.160
656.547	1662.378
656.675	1652.395
656.803	1656.067
656.931	1653.345
657.060	1655.311
657.188	1658.950
657.316	1653.798
657.444	1656.773
657.572	1653.059
657.700	1645.218
657.828	1654.983
657.956	1653.857
658.085	1656.521
658.213	1638.546
658.341	1640.597
658.469	1643.042
658.597	1645.739
658.725	1644.958
658.853	1624.588
658.981	1625.487
659.110	1631.311
659.238	1629.966
659.366	1628.807
659.494	1619.798
659.622	1615.303
659.750	1624.235
659.878	1616.210
660.006	1623.345
660.135	1614.672
660.263	1609.034
660.391	1598.067
660.519	1609.555
660.647	1596.050
660.775	1603.151
660.903	1597.832
661.031	1589.681
661.160	1588.765
661.288	1596.269
661.416	1592.563
661.544	1573.563
661.672	1583.193
661.800	1594.437
661.928	1580.714
662.056	1565.269
662.185	1581.084
662.313	1566.176
662.441	1571.336
662.569	1574.059
662.697	1570.849
662.825	1560.437
662.953	1573.143
663.081	1557.454
663.210	1554.571
663.338	1563.445
663.466	1549.966
663.594	1535.622
663.722	1535.193
663.850	1530.748
663.978	1530.597
664.106	1538.269
664.235	1532.706
664.363	1536.655
664.491	1519.176
664.619	1528.597
664.747	1521.857
664.875	1517.908
665.003	1500.958
665.131	1525.059
665.260	1521.420
665.388	1490.025
665.516	1502.218
665.644	1506.445
665.772	1494.227
665.900	1498.529
666.028	1505.176
666.156	1495.210
666.285	1489.706
666.413	1487.782
666.541	1489.714
666.669	1480.403
666.797	1484.353
666.925	1470.689
667.053	1494.353
667.181	1469.924
667.310	1450.454
667.438	1450.782
667.566	1459.311
667.694	1456.908
667.822	1467.193
667.950	1442.723
668.078	1456.874
668.206	1448.908
668.335	1451.504
668.463	1450.235
668.591	1433.630
668.719	1429.210
668.847	1433.924
668.975	1424.370
669.103	1431.429
669.231	1440.933
669.360	1424.017
669.488	1424.790
669.616	1411.210
669.744	1414.714
669.872	1403.336
670.000	1428.034
670.128	1401.437
670.256	1400.933
670.385	1407.126
670.513	1396.697
670.641	1379.193
670.769	1390.521
670.897	1381.269
671.025	1380.697
671.153	1386.429
671.281	1387.151
671.410	1379.647
671.538	1380.395
671.666	1370.227
671.794	1363.008
671.922	1355.134
672.050	1357.882
672.178	1363.546
672.306	1352.571
672.435	1348.487
672.563	1355.084
672.691	1353.807
672.819	1341.857
672.947	1333.521
673.075	1319.790
673.203	1323.546
673.331	1318.361
673.460	1318.303
673.588	1309.109
673.716	1322.496
673.844	1308.445
673.972	1306.261
674.100	1296.529
674.228	1296.891
674.356	1285.924
674.485	1291.664
674.613	1274.050
674.741	1282.706
674.869	1285.471
674.997	1274.630
675.125	1270.269
675.253	1254.639
675.381	1264.210
675.510	1257.538
675.638	1240.277
675.766	1247.874
675.894	1249.454
676.022	1250.193
676.150	1228.790
676.278	1228.454
676.406	1236.756
676.535	1224.092
676.663	1215.655
676.791	1214.580
676.919	1205.672
677.047	1211.160
677.175	1193.849
677.303	1196.739
677.431	1195.538
677.560	1182.908
677.688	1183.899
677.816	1176.303
677.944	1175.546
678.072	1168.697
678.200	1176.891
678.328	1157.151
678.456	1154.647
678.585	1155.639
678.713	1151.639
678.841	1145.731
678.969	1137.941
679.097	1144.496
679.225	1143.689
679.353	1135.017
679.481	1120.639
679.610	1127.849
679.738	1119.277
679.866	1118.950
679.994	1117.815
680.122	1119.328
680.250	1105.529
680.378	1104.924
680.506	1093.370
680.635	1096.008
680.763	1088.739
680.891	1083.109
681.019	1093.555
681.147	1081.529
681.275	1070.924
681.403	1066.546
681.531	1079.765
681.660	1070.160
681.788	1059.664
681.916	1053.538
682.044	1068.773
682.172	1045.580
682.300	1048.529
682.428	1046.227
682.556	1041.277
682.685	1042.286
682.813	1041.824
682.941	1030.958
683.069	1030.773
683.197	1036.437
683.325	1021.874
683.453	1019.613
683.581	1004.597
683.710	1008.050
683.838	1016.840
683.966	1006.798
684.094	1012.084
684.222	1010.824
684.350	996.160
684.478	1008.353
684.606	1001.630
684.735	995.672
684.863	989.555
684.991	990.059
685.119	984.655
685.247	980.798
685.375	973.168
685.503	982.370
685.631	981.101
685.760	977.504
685.888	968.958
686.016	968.269
686.144	959.815
686.272	958.353
686.400	963.277
686.528	960.496
686.656	959.504
686.785	941.950
686.913	959.227
687.041	941.328
687.169	948.429
687.297	953.824
687.425	933.067
687.553	936.546
687.681	945.807
687.810	937.118
687.938	926.176
688.066	936.143
688.194	929.202
688.322	923.336
688.450	918.824
688.578	926.857
688.706	925.832
688.835	919.647
688.963	922.630
689.091	916.588
689.219	905.933
689.347	902.017
689.475	909.479
689.603	895.403
689.731	901.639
689.860	904.454
689.988	903.454
690.116	898.168
690.244	891.689
690.372	890.529
690.500	895.403
690.628	882.555
690.756	885.555
690.885	878.975
691.013	874.613
691.141	879.412
691.269	869.546
691.397	873.034
691.525	871.958
691.653	872.160
691.781	861.176
691.910	864.824
692.038	859.151
692.166	855.118
692.294	855.655
692.422	853.429
692.550	860.765
692.678	850.899
692.806	841.983
692.935	846.202
693.063	840.563
693.191	836.303
693.319	838.202
693.447	833.067
693.575	830.874
693.703	828.202
693.831	825.798
693.960	818.176
694.088	830.244
694.216	820.782
694.344	812.118
694.472	825.311
694.600	811.706
694.728	806.664
694.856	808.168
694.985	799.252
695.113	800.286
695.241	795.143
695.369	796.782
695.497	794.798
695.625	796.824
695.753	795.647
695.881	782.143
696.010	785.454
696.138	781.613
696.266	779.622
696.394	773.261
696.522	768.361
696.650	760.336
696.778	762.639
696.906	752.992
697.035	756.966
697.163	747.849
697.291	748.277
697.419	746.168
697.547	736.983
697.675	744.227
697.803	750.361
697.931	729.076
698.060	729.563
698.188	724.958
698.316	729.857
698.444	719.983
698.572	712.908
698.700	722.025
698.828	722.513
698.956	711.193
699.085	704.193
699.213	699.378
699.341	699.395
699.469	699.773
699.597	701.454
699.725	701.311
699.853	688.924
699.981	695.773
700.110	687.387
700.238	686.580
700.366	681.420
700.494	678.933
700.622	674.546
700.750	671.832
700.878	675.294
701.006	672.277
701.135	670.244
701.263	664.689
701.391	658.739
701.519	662.866
701.647	662.731
701.775	654.496
701.903	656.538
702.031	655.218
702.160	653.437
702.288	648.487
702.416	648.924
702.544	639.050
702.672	642.664
702.800	634.748
702.928	637.092
703.056	631.630
703.185	627.017
703.313	631.134
703.441	623.227
703.569	624.807
703.697	626.748
703.825	621.370
703.953	625.739
704.081	614.076
704.210	611.269
704.338	614.739
704.466	606.891
704.594	605.378
704.722	606.916
704.850	601.975
704.978	601.277
705.106	593.588
705.235	595.639
705.363	592.370
705.491	591.496
705.619	586.714
705.747	586.798
705.875	586.790
706.003	584.966
706.131	583.345
706.260	576.050
706.388	574.672
706.516	571.899
706.644	573.958
706.772	573.916
706.900	562.555
707.028	568.739
707.156	562.210
707.285	562.983
707.413	557.479
707.541	558.227
707.669	550.336
707.797	548.782
707.925	547.630
708.053	552.874
708.181	550.664
708.310	543.555
708.438	536.084
708.566	538.588
708.694	537.269
708.822	535.202
708.950	534.395
709.078	524.361
709.206	525.664
709.335	524.866
709.463	519.563
709.591	517.916
709.719	521.168
709.847	516.857
709.975	516.311
710.103	513.109
710.231	515.395
710.360	499.706
710.488	502.697
710.616	505.496
710.744	503.378
710.872	504.218
711.000	502.277
711.128	492.269
711.256	487.353
711.385	494.092
711.513	491.160
711.641	489.008
711.769	484.496
711.897	487.261
712.025	480.487
712.153	480.429
712.281	480.723
712.410	480.866
712.538	476.731
712.666	472.639
712.794	474.866
712.922	471.882
713.050	468.336
713.178	465.134
713.306	468.992
713.435	460.269
713.563	463.756
713.691	466.160
713.819	459.496
713.947	449.370
714.075	452.714
714.203	456.303
714.331	452.580
714.460	453.748
714.588	452.647
714.716	446.160
714.844	443.798
714.972	442.723
715.100	444.874
715.228	443.202
715.356	441.992
715.485	438.092
715.613	435.084
715.741	433.899
715.869	435.975
715.997	433.218
716.125	428.571
716.253	425.840
716.381	429.714
716.510	431.395
716.638	431.361
716.766	424.790
716.894	416.504
717.022	421.412
717.150	417.588
717.278	422.084
717.406	418.042
717.535	418.681
717.663	417.168
717.791	419.546
717.919	412.076
718.047	409.092
718.175	410.202
718.303	408.597
718.431	406.134
718.560	404.756
718.688	408.025
718.816	400.849
718.944	399.538
719.072	406.437
719.200	403.924
719.328	397.445
719.456	398.891
719.585	397.983
719.713	396.101
719.841	390.975
719.969	388.899
720.097	385.244
720.225	387.950
720.353	387.134
720.481	387.000
720.610	384.815
720.738	382.941
720.866	386.798
720.994	383.756
721.122	382.555
721.250	381.580
721.378	378.202
721.506	376.697
721.635	377.160
721.763	377.840
721.891	372.092
722.019	369.017
722.147	369.118
722.275	371.126
722.403	369.975
722.531	366.773
722.660	368.496
722.788	365.328
722.916	363.681
723.044	361.824
723.172	364.857
723.300	360.563
723.428	357.403
723.556	360.395
723.685	352.908
723.813	359.866
723.941	352.513
724.069	355.874
724.197	353.613
724.325	344.790
724.453	345.067
724.581	345.832
724.710	346.126
724.838	345.924
724.966	341.294
725.094	342.908
725.222	338.513
725.350	338.370
725.478	337.950
725.606	337.588
725.735	337.429
725.863	333.193
725.991	332.134
726.119	331.555
726.247	328.630
726.375	330.857
726.503	329.101
726.631	325.672
726.760	325.176
726.888	324.950
727.016	323.000
727.144	323.672
727.272	323.924
727.400	319.134
727.528	318.908
727.656	318.807
727.785	315.664
727.913	314.025
728.041	311.454
728.169	316.588
728.297	312.160
728.425	310.966
728.553	308.521
728.681	306.134
728.810	307.765
728.938	302.336
729.066	305.109
729.194	306.050
729.322	304.017
729.450	301.160
729.578	300.529
729.706	301.790
729.835	300.353
729.963	301.874
730.091	295.529
730.219	295.874
730.347	294.546
730.475	291.992
730.603	292.529
730.731	293.538
730.860	290.613
730.988	289.042
731.116	286.092
731.244	289.496
731.372	290.874
731.500	286.336
731.628	284.882
731.756	283.639
731.885	281.176
732.013	283.445
732.141	282.529
732.269	282.647
732.397	277.437
732.525	278.664
732.653	280.639
732.781	277.118
732.910	276.647
733.038	276.462
733.166	276.311
733.294	274.815
733.422	274.454
733.550	275.168
733.678	273.210
733.806	272.655
733.935	267.681
734.063	269.723
734.191	267.782
734.319	261.605
734.447	267.546
734.575	266.471
734.703	263.218
734.831	265.034
734.960	263.773
735.088	265.378
735.216	263.227
735.344	261.084
735.472	258.807
735.600	259.437
735.728	258.555
735.856	259.395
735.985	257.303
736.113	257.387
736.241	258.882
736.369	255.639
736.497	257.420
736.625	256.176
736.753	253.345
736.881	251.143
737.010	251.286
737.138	252.605
737.266	251.025
737.394	249.328
737.522	252.807
737.650	250.815
737.778	247.748
737.906	250.210
738.035	243.782
738.163	245.042
738.291	247.370
738.419	246.168
738.547	244.227
738.675	245.882
738.803	242.471
738.931	241.143
739.060	242.513
739.188	243.252
739.316	244.294
739.444	241.286
739.572	237.891
739.700	239.118
739.828	237.034
739.956	237.504
740.085	238.303
740.213	238.555
740.341	232.319
740.469	237.420
740.597	235.210
740.725	236.336
740.853	235.681
740.981	234.689
741.110	231.420
741.238	232.992
741.366	234.739
741.494	233.420
741.622	228.202
741.750	231.504
741.878	233.647
742.006	231.412
742.135	229.739
742.263	227.840
742.391	222.294
742.519	227.303
742.647	228.782
742.775	228.790
742.903	225.916
743.031	225.571
743.160	223.529
743.288	223.950
743.416	219.008
743.544	217.899
743.672	221.277
743.800	222.227
743.928	222.429
744.056	220.571
744.185	218.471
744.313	219.580
744.441	219.924
744.569	217.126
744.697	217.824
744.825	219.580
744.953	216.244
745.081	217.681
745.210	217.336
745.338	215.697
745.466	215.017
745.594	210.630
745.722	215.950
745.850	213.059
745.978	210.134
746.106	214.261
746.235	213.479
746.363	213.134
746.491	209.202
746.619	207.193
746.747	209.563
746.875	208.866
747.003	211.387
747.131	207.101
747.260	208.706
747.388	208.672
747.516	206.941
747.644	205.311
747.772	206.429
747.900	205.630
748.028	204.118
748.156	201.252
748.285	204.555
748.413	203.286
748.541	202.319
748.669	202.008
748.797	201.580
748.925	201.613
749.053	199.706
749.181	199.941
749.310	198.538
749.438	199.992
749.566	197.605
749.694	197.840
749.822	198.613
749.950	197.571
750.078	196.286
750.206	196.143
750.335	196.261
750.463	195.689
750.591	195.882
750.719	195.874
750.847	192.706
750.975	190.773
751.103	189.992
751.231	193.025
751.360	191.361
751.488	189.462
751.616	185.529
751.744	188.487
751.872	189.454
752.000	189.160
752.128	187.244
752.256	190.353
752.385	188.723
752.513	187.933
752.641	187.143
752.769	185.529
752.897	185.672
753.025	180.891
753.153	186.345
753.281	185.739
753.410	185.294
753.538	183.739
753.666	185.378
753.794	183.437
753.922	184.546
754.050	179.513
754.178	182.420
754.306	180.017
754.435	180.975
754.563	183.849
754.691	180.412
754.819	177.429
754.947	179.714
755.075	181.387
755.203	181.193
755.331	179.462
755.460	180.168
755.588	179.202
755.716	176.555
755.844	175.168
755.972	175.672
756.100	174.345
756.228	177.067
756.356	174.067
756.485	179.471
756.613	174.782
756.741	174.782
756.869	177.118
756.997	174.336
757.125	172.588
757.253	173.723
757.381	171.941
757.510	172.773
757.638	171.756
757.766	171.378
757.894	170.882
758.022	171.899
758.150	169.244
758.278	169.529
758.406	166.933
758.535	170.681
758.663	170.630
758.791	166.571
758.919	167.176
759.047	168.429
759.175	168.445
759.303	166.454
759.431	167.462
759.560	167.008
759.688	167.731
759.816	166.605
759.944	166.050
760.072	165.168
760.200	165.202
760.328	164.353
760.456	164.546
760.585	164.176
760.713	162.008
760.841	164.445
760.969	160.025
761.097	162.227
761.225	163.244
761.353	161.849
761.481	164.134
761.610	162.025
761.738	161.571
761.866	161.538
761.994	159.950
762.122	157.899
762.250	159.277
762.378	158.017
762.506	160.050
762.635	159.681
762.763	159.143
762.891	160.176
763.019	158.067
763.147	157.950
763.275	156.840
763.403	154.395
763.531	154.462
763.660	156.975
763.788	157.042
763.916	157.218
764.044	155.202
764.172	155.908
764.300	151.723
764.428	153.345
764.556	153.924
764.685	153.723
764.813	154.462
764.941	154.101
765.069	153.479
765.197	154.034
765.325	151.286
765.453	151.782
765.581	152.252
765.710	151.269
765.838	151.950
765.966	152.597
766.094	151.336
766.222	151.403
766.350	150.319
766.478	151.202
766.606	149.193
766.735	150.479
766.863	148.529
766.991	148.067
767.119	150.513
767.247	149.555
767.375	149.311
767.503	147.966
767.631	149.034
767.760	146.412
767.888	146.387
768.016	148.151
768.144	144.109
768.272	148.059
768.400	147.924
768.528	145.950
768.656	144.655
768.785	146.336
768.913	147.067
769.041	145.143
769.169	145.832
769.297	143.252
769.425	142.832
769.553	145.193
769.681	143.563
769.810	146.571
769.938	143.622
770.066	143.235
770.194	144.723
770.322	144.193
770.450	143.336
770.578	143.092
770.706	142.815
770.835	142.605
770.963	141.950
771.091	142.748
771.219	141.101
771.347	143.076
771.475	140.748
771.603	142.773
771.731	140.866
771.860	140.403
771.988	141.546
772.116	141.723
772.244	141.193
772.372	140.706
772.500	141.933
772.628	142.118
772.756	138.697
772.885	139.756
773.013	139.059
773.141	137.067
773.269	136.840
773.397	139.655
773.525	138.218
773.653	139.815
773.781	137.613
773.910	138.160
774.038	138.387
774.166	136.958
774.294	137.143
774.422	135.303
774.550	137.126
774.678	138.546
774.806	136.546
774.935	135.908
775.063	136.807
775.191	137.252
775.319	135.891
775.447	135.471
775.575	135.546
775.703	136.076
775.831	133.748
775.960	133.790
776.088	134.042
776.216	135.193
776.344	134.655
776.472	134.076
776.600	133.496
776.728	133.420
776.856	134.529
776.985	134.647
777.113	133.336
777.241	133.151
777.369	132.487
777.497	130.815
777.625	132.092
777.753	133.546
777.881	132.387
778.010	131.950
778.138	131.244
778.266	129.563
778.394	130.941
778.522	130.160
778.650	128.773
778.778	130.294
778.906	130.840
779.035	131.798
779.163	130.798
779.291	129.319
779.419	129.387
779.547	131.168
779.675	129.891
779.803	131.294
779.931	128.429
780.060	127.966
780.188	128.832
780.316	128.412
780.444	129.916
780.572	127.958
780.700	131.319
780.828	127.101
780.956	129.034
781.085	130.319
781.213	128.227
781.341	129.605
781.469	127.261
781.597	127.076
781.725	127.908
781.853	127.462
781.981	126.151
782.110	128.176
782.238	127.933
782.366	125.866
782.494	124.891
782.622	125.588
782.750	127.059
782.878	125.916
783.006	126.807
783.135	126.597
783.263	124.361
783.391	125.261
783.519	126.202
783.647	124.992
783.775	125.076
783.903	124.109
784.031	123.059
784.160	123.882
784.288	123.647
784.416	123.521
784.544	121.882
784.672	124.622
784.800	123.345
784.928	123.899
785.056	124.311
785.185	124.101
785.313	123.588
785.441	121.681
785.569	121.849
785.697	124.185
785.825	121.580
785.953	123.059
786.081	122.429
786.210	120.420
786.338	122.605
786.466	121.126
786.594	122.042
786.722	121.563
786.850	120.924
786.978	119.815
787.106	121.479
787.235	120.706
787.363	120.529
787.491	121.664
787.619	121.513
787.747	121.462
787.875	119.496
788.003	119.487
788.131	119.647
788.260	120.378
788.388	120.571
788.516	118.899
788.644	118.210
788.772	118.874
788.900	119.311
789.028	118.059
789.156	120.118
789.285	117.983
789.413	119.353
789.541	120.882
789.669	117.975
789.797	117.328
789.925	117.050
790.053	120.345
790.181	119.235
790.310	118.378
790.438	118.429
790.566	117.731
790.694	117.874
790.822	118.143
790.950	117.840
791.078	118.521
791.206	117.849
791.335	117.504
791.463	117.084
791.591	116.034
791.719	116.790
791.847	115.950
791.975	117.454
792.103	115.832
792.231	117.672
792.360	115.807
792.488	114.630
792.616	116.387
792.744	115.563
792.872	116.000
793.000	114.950
793.128	115.378
793.256	117.714
793.385	115.143
793.513	115.109
793.641	116.992
793.769	114.294
793.897	115.403
794.025	115.286
794.153	115.101
794.281	114.647
794.410	113.504
794.538	115.807
794.666	115.008
794.794	114.555
794.922	114.706
795.050	115.185
795.178	114.244
795.306	112.697
795.435	114.067
795.563	114.723
795.691	114.143
795.819	113.336
795.947	114.529
796.075	114.630
796.203	115.798
796.331	113.370
796.460	113.101
796.588	113.580
796.716	113.731
796.844	113.504
796.972	114.849
797.100	111.378
797.228	114.454
797.356	114.773
797.485	113.538
797.613	113.277
797.741	114.319
797.869	113.748
797.997	113.824
798.125	113.311
798.253	111.168
798.381	112.000
798.510	111.538
798.638	111.328
798.766	112.866
798.894	111.437
799.022	111.395
799.150	111.252
799.278	111.092
799.406	113.588
799.535	112.361
799.663	112.403
799.791	110.924
799.919	112.311
800.047	112.824
800.175	111.731
800.303	110.723
800.431	112.025
800.560	111.445
800.688	111.092
800.816	110.807
800.944	110.672
801.072	112.681
801.200	111.966
801.328	110.445
801.456	111.462
801.585	110.655
801.713	111.151
801.841	112.134
801.969	110.891
802.097	110.924
802.225	110.782
802.353	110.092
802.481	111.017
802.610	111.723
802.738	111.345
802.866	110.849
802.994	110.975
803.122	110.462
803.250	110.756
803.378	110.664
803.506	111.941
803.635	110.992
803.763	110.303
803.891	111.496
804.019	110.370
804.147	111.403
804.275	109.496
804.403	109.882
804.531	109.798
804.660	109.261
804.788	110.479
804.916	110.513
805.044	108.824
805.172	109.723
805.300	108.613
805.428	110.563
805.556	109.681
805.685	109.983
805.813	110.420
805.941	109.336
806.069	109.067
806.197	109.403
806.325	108.916
806.453	109.765
806.581	109.403
806.710	108.882
806.838	108.546
806.966	109.748
807.094	109.328
807.222	109.832
807.350	109.412
807.478	109.664
807.606	108.739
807.735	109.008
807.863	110.017
807.991	108.521
808.119	108.748
808.247	108.176
808.375	109.059
808.503	109.151
808.631	109.681
808.760	108.479
808.888	107.765
809.016	109.857
809.144	109.714
809.272	109.639
809.400	108.555
809.528	108.874
809.656	107.824
809.785	107.857
809.913	108.286
810.041	108.244
810.169	107.672
810.297	107.840
810.425	108.025
810.553	107.328
810.681	107.941
810.810	109.269
810.938	108.134
811.066	107.101
811.194	108.193
811.322	107.739
811.450	107.697
811.578	109.092
811.706	108.647
811.835	108.118
811.963	107.840
812.091	108.798
812.219	107.597
812.347	108.303
812.475	108.261
812.603	107.807
812.731	106.597
812.860	108.050
812.988	108.008
813.116	107.092
813.244	108.000
813.372	108.042
813.500	107.924
813.628	107.471
813.756	105.992
813.885	106.807
814.013	106.815
814.141	107.798
814.269	107.303
814.397	107.731
814.525	107.303
814.653	107.739
814.781	107.176
814.910	107.395
815.038	107.983
815.166	108.580
815.294	107.681
815.422	107.630
815.550	107.655
815.678	106.546
815.806	107.630
815.935	107.218
816.063	106.513
816.191	106.723
816.319	107.924
816.447	108.311
816.575	108.429
816.703	107.689
816.831	107.655
816.960	108.210
817.088	107.202
817.216	106.882
817.344	107.966
817.472	108.202
817.600	106.538
817.728	106.571
817.856	106.630
817.985	105.857
818.113	107.076
818.241	107.286
818.369	106.176
818.497	107.681
818.625	106.882
818.753	106.076
818.881	106.916
819.010	106.765
819.138	106.101
819.266	106.773
819.394	106.168
819.522	104.639
819.650	107.403
819.778	105.319
819.906	106.773
820.035	106.840
820.163	105.908
820.291	105.034
820.419	105.218
820.547	107.025
820.675	104.882
820.803	106.025
820.931	106.471
821.060	105.017
821.188	106.798
821.316	106.008
821.444	106.193
821.572	105.832
821.700	105.613
821.828	107.143
821.956	106.244
822.085	105.849
822.213	106.361
822.341	105.992
822.469	104.924
822.597	104.832
822.725	105.487
822.853	105.866
822.981	105.311
823.110	105.420
823.238	104.353
823.366	106.244
823.494	105.084
823.622	105.916
823.750	106.151
823.878	104.655
824.006	106.765
824.135	106.235
824.263	105.983
824.391	105.025
824.519	106.370
824.647	106.622
824.775	106.479
824.903	105.798
825.031	107.092
825.160	106.345
825.288	105.731
825.416	106.000
825.544	106.067
825.672	106.294
825.800	105.277
825.928	105.807
826.056	105.824
826.185	105.462
826.313	105.353
826.441	105.445
826.569	104.840
826.697	105.622
826.825	104.765
826.953	106.328
827.081	104.025
827.210	105.084
827.338	104.815
827.466	105.109
827.594	105.756
827.722	105.000
827.850	104.454
827.978	104.395
828.106	105.403
828.235	106.151
828.363	105.319
828.491	105.008
828.619	104.992
828.747	106.025
828.875	105.185
829.003	105.815
829.131	106.496
829.260	105.866
829.388	105.252
829.516	104.723
829.644	104.714
829.772	106.235
829.900	104.824
830.028	105.723
830.156	105.227
830.285	105.286
830.413	105.613
830.541	105.454
830.669	104.714
830.797	104.958
830.925	104.202
831.053	104.303
831.181	104.613
831.310	105.092
831.438	105.571
831.566	105.546
831.694	104.790
831.822	103.924
831.950	104.866
832.078	104.723
832.206	104.874
832.335	104.286
832.463	104.824
832.591	104.908
832.719	104.790
832.847	104.899
832.975	104.151
833.103	105.513
833.231	104.605
833.360	105.555
833.488	104.269
833.616	104.748
833.744	103.597
833.872	104.387
834.000	105.622
834.128	105.739
834.256	104.546
834.385	103.739
834.513	105.311
834.641	102.958
834.769	103.244
834.897	105.387
835.025	104.059
835.153	103.303
835.281	103.647
835.410	104.597
835.538	104.916
835.666	104.798
835.794	104.311
835.922	105.286
836.050	103.941
836.178	104.109
836.306	104.168
836.435	104.101
836.563	103.681
836.691	104.840
836.819	105.050
836.947	103.866
837.075	103.706
837.203	103.261
837.331	104.933
837.460	104.471
837.588	104.420
837.716	103.765
837.844	105.252
837.972	103.866
838.100	104.151
838.228	103.748
838.356	103.462
838.485	102.496
838.613	104.050
838.741	104.765
838.869	104.891
838.997	104.899
839.125	102.193
839.253	103.261
839.381	104.345
839.510	103.563
839.638	103.319
839.766	103.345
839.894	104.050
840.022	104.739
840.150	104.118
840.278	103.218
840.406	104.815
840.535	104.765
840.663	102.958
840.791	103.151
840.919	103.790
841.047	103.555
841.175	104.655
841.303	104.134
841.431	104.748
841.560	103.664
841.688	103.580
841.816	103.286
841.944	103.084
842.072	103.429
842.200	103.445
842.328	104.664
842.456	104.412
842.585	104.580
842.713	103.798
842.841	104.168
842.969	103.958
843.097	104.479
843.225	104.008
843.353	103.445
843.481	103.109
843.610	104.118
843.738	103.597
843.866	103.546
