70-120-90_at_679.99nm_cut_at_1283.50Y_01.dat
24.01.2024
11:34:03
cut middle at Y: 1283.50
top cursor: 1343 down cursor: 1224 mean of: 119 lines , 2560 datapoints
wavelength(nm)	intensity[arb. units]
515.994	460.420
516.122	438.521
516.250	429.462
516.378	425.807
516.506	424.025
516.635	429.916
516.763	431.067
516.891	432.521
517.019	434.042
517.147	430.504
517.275	427.479
517.403	434.992
517.531	428.571
517.660	430.723
517.788	432.807
517.916	431.706
518.044	432.521
518.172	433.487
518.300	431.252
518.428	433.328
518.556	433.891
518.685	431.975
518.813	434.958
518.941	439.790
519.069	436.092
519.197	435.420
519.325	433.681
519.453	439.286
519.581	442.748
519.710	438.681
519.838	445.849
519.966	440.034
520.094	442.807
520.222	443.353
520.350	445.412
520.478	448.067
520.606	450.210
520.735	450.370
520.863	453.252
520.991	455.908
521.119	450.370
521.247	451.538
521.375	453.824
521.503	458.924
521.631	457.261
521.760	455.739
521.888	460.538
522.016	463.891
522.144	464.571
522.272	462.277
522.400	463.706
522.528	468.210
522.656	460.513
522.785	467.445
522.913	468.454
523.041	460.504
523.169	467.261
523.297	470.269
523.425	468.160
523.553	467.513
523.681	467.336
523.810	473.504
523.938	478.706
524.066	473.193
524.194	471.840
524.322	472.008
524.450	472.109
524.578	468.328
524.706	472.286
524.835	467.387
524.963	471.672
525.091	476.345
525.219	473.639
525.347	472.966
525.475	477.697
525.603	475.529
525.731	471.714
525.860	476.193
525.988	474.277
526.116	468.983
526.244	474.731
526.372	472.218
526.500	474.924
526.628	476.580
526.756	474.235
526.885	476.966
527.013	480.874
527.141	478.496
527.269	477.412
527.397	477.622
527.525	476.840
527.653	477.034
527.781	478.437
527.910	486.655
528.038	483.622
528.166	483.815
528.294	480.168
528.422	480.471
528.550	490.815
528.678	480.487
528.806	484.025
528.935	486.899
529.063	490.790
529.191	491.277
529.319	483.580
529.447	496.613
529.575	497.395
529.703	491.286
529.831	497.966
529.960	493.580
530.088	498.681
530.216	493.092
530.344	497.269
530.472	501.866
530.600	496.471
530.728	495.975
530.856	505.513
530.985	500.580
531.113	501.034
531.241	501.924
531.369	507.109
531.497	503.588
531.625	511.546
531.753	500.756
531.881	506.336
532.010	509.555
532.138	508.101
532.266	502.370
532.394	507.815
532.522	502.739
532.650	509.084
532.778	512.840
532.906	504.899
533.035	507.269
533.163	505.118
533.291	501.109
533.419	503.538
533.547	508.269
533.675	503.328
533.803	499.378
533.931	505.672
534.060	501.672
534.188	504.336
534.316	506.891
534.444	508.050
534.572	508.345
534.700	508.227
534.828	503.370
534.956	510.176
535.085	503.790
535.213	510.311
535.341	504.655
535.469	514.294
535.597	512.538
535.725	517.462
535.853	516.992
535.981	515.000
536.110	517.933
536.238	520.924
536.366	523.966
536.494	517.983
536.622	525.546
536.750	519.487
536.878	523.773
537.006	526.017
537.135	528.832
537.263	527.286
537.391	535.412
537.519	529.303
537.647	527.639
537.775	533.378
537.903	535.286
538.031	538.202
538.160	533.950
538.288	539.630
538.416	536.681
538.544	536.462
538.672	541.008
538.800	538.916
538.928	543.672
539.056	539.521
539.185	546.151
539.313	541.471
539.441	542.202
539.569	550.319
539.697	545.689
539.825	545.840
539.953	545.924
540.081	542.109
540.210	544.807
540.338	552.832
540.466	549.975
540.594	548.714
540.722	541.613
540.850	544.748
540.978	550.151
541.106	549.765
541.235	555.050
541.363	549.639
541.491	550.361
541.619	544.874
541.747	551.429
541.875	550.109
542.003	543.210
542.131	549.521
542.260	551.672
542.388	554.445
542.516	557.630
542.644	550.370
542.772	550.134
542.900	552.168
543.028	552.445
543.156	554.361
543.285	551.538
543.413	553.143
543.541	559.311
543.669	557.412
543.797	557.521
543.925	555.151
544.053	563.471
544.181	558.513
544.310	560.042
544.438	559.445
544.566	562.597
544.694	563.647
544.822	556.176
544.950	564.487
545.078	566.168
545.206	567.731
545.335	563.034
545.463	571.496
545.591	567.950
545.719	569.924
545.847	565.479
545.975	572.261
546.103	564.403
546.231	576.798
546.360	566.773
546.488	570.479
546.616	572.849
546.744	576.496
546.872	572.000
547.000	579.756
547.128	571.261
547.256	575.630
547.385	569.832
547.513	570.403
547.641	582.756
547.769	578.513
547.897	578.773
548.025	586.840
548.153	581.462
548.281	579.832
548.410	577.479
548.538	584.529
548.666	584.739
548.794	577.555
548.922	581.008
549.050	589.824
549.178	582.933
549.306	590.185
549.435	590.235
549.563	586.857
549.691	580.118
549.819	585.933
549.947	590.185
550.075	584.084
550.203	584.664
550.331	587.319
550.460	589.076
550.588	589.697
550.716	596.412
550.844	587.555
550.972	585.202
551.100	590.025
551.228	592.244
551.356	586.790
551.485	592.017
551.613	588.387
551.741	578.034
551.869	577.454
551.997	582.882
552.125	585.210
552.253	579.899
552.381	578.101
552.510	581.429
552.638	580.008
552.766	581.807
552.894	577.185
553.022	582.479
553.150	569.227
553.278	572.630
553.406	581.933
553.535	573.328
553.663	577.336
553.791	575.706
553.919	578.286
554.047	578.218
554.175	583.244
554.303	580.790
554.431	577.706
554.560	577.639
554.688	581.361
554.816	578.244
554.944	579.950
555.072	582.790
555.200	590.059
555.328	582.202
555.456	585.017
555.585	586.445
555.713	586.353
555.841	590.261
555.969	586.202
556.097	589.042
556.225	592.857
556.353	603.269
556.481	589.067
556.610	599.109
556.738	596.471
556.866	595.924
556.994	597.277
557.122	592.521
557.250	603.210
557.378	599.353
557.506	601.092
557.635	598.429
557.763	600.050
557.891	611.227
558.019	604.042
558.147	605.664
558.275	607.134
558.403	619.202
558.531	610.429
558.660	611.571
558.788	610.345
558.916	613.420
559.044	602.202
559.172	615.622
559.300	617.924
559.428	618.857
559.556	625.361
559.685	617.361
559.813	615.908
559.941	622.672
560.069	625.714
560.197	621.336
560.325	626.882
560.453	622.008
560.581	629.218
560.710	616.924
560.838	618.857
560.966	621.882
561.094	628.689
561.222	624.445
561.350	625.454
561.478	620.017
561.606	625.739
561.735	617.655
561.863	624.504
561.991	625.277
562.119	619.555
562.247	623.664
562.375	630.185
562.503	619.756
562.631	620.151
562.760	625.420
562.888	624.361
563.016	619.874
563.144	623.437
563.272	627.773
563.400	618.571
563.528	620.059
563.656	623.992
563.785	624.950
563.913	618.025
564.041	625.739
564.169	622.790
564.297	624.529
564.425	620.134
564.553	629.235
564.681	628.126
564.810	626.756
564.938	622.849
565.066	626.109
565.194	627.303
565.322	634.513
565.450	632.168
565.578	632.008
565.706	631.134
565.835	629.471
565.963	631.513
566.091	636.143
566.219	635.353
566.347	631.017
566.475	638.084
566.603	641.000
566.731	641.891
566.860	642.462
566.988	643.008
567.116	649.286
567.244	647.235
567.372	646.563
567.500	652.874
567.628	649.824
567.756	657.286
567.885	659.824
568.013	655.067
568.141	656.496
568.269	656.244
568.397	657.941
568.525	657.084
568.653	665.361
568.781	666.319
568.910	666.042
569.038	666.336
569.166	665.571
569.294	671.866
569.422	673.639
569.550	670.235
569.678	676.882
569.806	676.286
569.935	684.437
570.063	674.857
570.191	681.429
570.319	684.639
570.447	691.076
570.575	682.412
570.703	690.303
570.831	694.336
570.960	686.941
571.088	699.345
571.216	694.471
571.344	699.504
571.472	693.294
571.600	708.286
571.728	695.513
571.856	700.092
571.985	704.857
572.113	706.630
572.241	703.378
572.369	712.034
572.497	704.672
572.625	711.000
572.753	714.445
572.881	718.882
573.010	709.924
573.138	722.765
573.266	717.639
573.394	718.958
573.522	714.580
573.650	718.966
573.778	724.345
573.906	726.471
574.035	719.412
574.163	725.059
574.291	723.294
574.419	723.580
574.547	735.454
574.675	732.588
574.803	731.580
574.931	728.689
575.060	737.908
575.188	726.185
575.316	728.521
575.444	737.067
575.572	731.118
575.700	732.807
575.828	732.311
575.956	744.109
576.085	732.924
576.213	735.210
576.341	727.950
576.469	734.639
576.597	739.924
576.725	731.084
576.853	733.798
576.981	730.723
577.110	727.966
577.238	739.571
577.366	738.966
577.494	732.429
577.622	735.714
577.750	727.840
577.878	737.941
578.006	740.084
578.135	733.462
578.263	741.992
578.391	740.571
578.519	741.647
578.647	741.504
578.775	738.782
578.903	739.193
579.031	748.773
579.160	739.471
579.288	748.353
579.416	739.412
579.544	747.311
579.672	747.126
579.800	752.109
579.928	747.487
580.056	742.571
580.185	750.546
580.313	749.050
580.441	755.555
580.569	752.966
580.697	746.261
580.825	756.908
580.953	761.303
581.081	753.639
581.210	763.664
581.338	764.471
581.466	766.723
581.594	761.479
581.722	761.933
581.850	767.992
581.978	765.655
582.106	774.714
582.235	772.697
582.363	767.403
582.491	777.227
582.619	773.218
582.747	784.605
582.875	784.487
583.003	793.370
583.131	784.731
583.260	790.202
583.388	797.244
583.516	793.992
583.644	795.118
583.772	798.748
583.900	808.613
584.028	805.109
584.156	805.118
584.285	811.992
584.413	808.714
584.541	814.017
584.669	820.202
584.797	821.966
584.925	819.782
585.053	823.487
585.181	828.076
585.310	828.899
585.438	833.992
585.566	833.681
585.694	841.689
585.822	838.143
585.950	843.538
586.078	851.731
586.206	844.597
586.335	853.050
586.463	855.454
586.591	860.319
586.719	849.496
586.847	864.067
586.975	856.210
587.103	862.353
587.231	861.429
587.360	869.008
587.488	871.277
587.616	875.076
587.744	879.345
587.872	868.857
588.000	877.487
588.128	883.034
588.256	881.202
588.385	881.605
588.513	885.403
588.641	884.647
588.769	893.395
588.897	887.471
589.025	883.958
589.153	888.941
589.281	885.672
589.410	893.294
589.538	893.345
589.666	902.185
589.794	898.597
589.922	899.706
590.050	911.697
590.178	904.076
590.306	897.529
590.435	906.933
590.563	901.143
590.691	907.403
590.819	910.261
590.947	920.345
591.075	910.706
591.203	911.765
591.331	918.849
591.460	921.328
591.588	910.252
591.716	915.992
591.844	913.681
591.972	930.966
592.100	926.773
592.228	927.050
592.356	936.277
592.485	923.529
592.613	930.613
592.741	942.143
592.869	936.227
592.997	947.504
593.125	943.109
593.253	948.008
593.381	950.151
593.510	951.437
593.638	952.992
593.766	952.387
593.894	964.269
594.022	943.303
594.150	958.891
594.278	975.261
594.406	962.134
594.535	963.588
594.663	966.336
594.791	964.403
594.919	965.261
595.047	981.168
595.175	983.361
595.303	974.840
595.431	973.899
595.560	990.244
595.688	983.118
595.816	977.639
595.944	998.546
596.072	995.824
596.200	1004.874
596.328	998.193
596.456	995.815
596.585	1011.336
596.713	1013.286
596.841	1009.353
596.969	1004.798
597.097	1015.134
597.225	1015.882
597.353	1028.622
597.481	1029.403
597.610	1034.521
597.738	1034.311
597.866	1029.126
597.994	1036.807
598.122	1054.235
598.250	1048.538
598.378	1046.630
598.506	1050.748
598.635	1047.277
598.763	1055.218
598.891	1052.487
599.019	1060.160
599.147	1055.084
599.275	1061.319
599.403	1062.563
599.531	1073.487
599.660	1070.294
599.788	1078.042
599.916	1078.840
600.044	1079.454
600.172	1083.303
600.300	1082.235
600.428	1081.454
600.556	1094.445
600.685	1102.739
600.813	1098.042
600.941	1105.773
601.069	1104.824
601.197	1111.765
601.325	1109.210
601.453	1116.353
601.581	1120.815
601.710	1123.328
601.838	1127.294
601.966	1133.462
602.094	1132.109
602.222	1137.168
602.350	1138.832
602.478	1145.571
602.606	1147.857
602.735	1147.597
602.863	1164.546
602.991	1157.807
603.119	1172.101
603.247	1176.866
603.375	1174.706
603.503	1176.580
603.631	1188.076
603.760	1188.899
603.888	1194.328
604.016	1204.462
604.144	1201.445
604.272	1197.487
604.400	1205.504
604.528	1204.958
604.656	1209.218
604.785	1216.588
604.913	1221.555
605.041	1231.689
605.169	1229.975
605.297	1234.613
605.425	1230.227
605.553	1254.563
605.681	1247.681
605.810	1248.739
605.938	1259.210
606.066	1249.059
606.194	1255.563
606.322	1262.975
606.450	1266.118
606.578	1269.462
606.706	1273.731
606.835	1274.689
606.963	1276.420
607.091	1278.471
607.219	1282.168
607.347	1277.538
607.475	1287.277
607.603	1299.462
607.731	1284.933
607.860	1288.714
607.988	1293.992
608.116	1295.513
608.244	1289.185
608.372	1293.496
608.500	1301.059
608.628	1304.941
608.756	1303.235
608.885	1307.084
609.013	1314.454
609.141	1307.227
609.269	1314.756
609.397	1318.168
609.525	1327.454
609.653	1320.185
609.781	1314.882
609.910	1318.588
610.038	1318.580
610.166	1330.025
610.294	1310.798
610.422	1341.866
610.550	1324.235
610.678	1320.866
610.806	1333.983
610.935	1331.185
611.063	1328.866
611.191	1336.227
611.319	1338.689
611.447	1337.832
611.575	1342.193
611.703	1332.832
611.831	1341.252
611.960	1339.588
612.088	1344.739
612.216	1352.689
612.344	1354.496
612.472	1333.613
612.600	1353.008
612.728	1346.042
612.856	1363.067
612.985	1354.118
613.113	1351.412
613.241	1360.151
613.369	1369.714
613.497	1364.992
613.625	1365.151
613.753	1364.874
613.881	1367.034
614.010	1369.916
614.138	1360.933
614.266	1360.866
614.394	1370.403
614.522	1380.504
614.650	1395.303
614.778	1374.361
614.906	1409.563
615.035	1378.748
615.163	1383.798
615.291	1395.891
615.419	1408.471
615.547	1398.672
615.675	1417.176
615.803	1406.555
615.931	1417.235
616.060	1418.008
616.188	1419.378
616.316	1418.706
616.444	1414.798
616.572	1431.328
616.700	1422.311
616.828	1442.235
616.956	1446.765
617.085	1461.218
617.213	1448.882
617.341	1440.588
617.469	1446.261
617.597	1464.244
617.725	1456.756
617.853	1462.647
617.981	1469.387
618.110	1470.933
618.238	1471.143
618.366	1491.613
618.494	1496.403
618.622	1493.319
618.750	1495.605
618.878	1498.496
619.006	1512.008
619.135	1515.277
619.263	1517.151
619.391	1511.328
619.519	1528.176
619.647	1530.840
619.775	1528.303
619.903	1537.261
620.031	1539.857
620.160	1545.420
620.288	1545.109
620.416	1565.462
620.544	1553.647
620.672	1563.277
620.800	1569.050
620.928	1580.244
621.056	1583.319
621.185	1583.630
621.313	1588.168
621.441	1609.160
621.569	1613.378
621.697	1608.303
621.825	1619.050
621.953	1617.034
622.081	1631.118
622.210	1618.782
622.338	1631.269
622.466	1621.773
622.594	1645.933
622.722	1642.731
622.850	1648.420
622.978	1656.017
623.106	1659.076
623.235	1663.370
623.363	1668.025
623.491	1669.336
623.619	1668.479
623.747	1684.050
623.875	1678.504
624.003	1666.462
624.131	1681.067
624.260	1670.748
624.388	1698.983
624.516	1715.782
624.644	1684.958
624.772	1691.210
624.900	1706.076
625.028	1694.151
625.156	1732.807
625.285	1710.798
625.413	1713.975
625.541	1723.286
625.669	1722.126
625.797	1722.739
625.925	1730.336
626.053	1714.445
626.181	1739.664
626.310	1736.462
626.438	1732.387
626.566	1737.866
626.694	1740.403
626.822	1732.891
626.950	1761.924
627.078	1750.193
627.206	1743.555
627.335	1766.420
627.463	1758.025
627.591	1761.218
627.719	1762.462
627.847	1771.521
627.975	1775.311
628.103	1757.622
628.231	1779.420
628.360	1761.697
628.488	1773.824
628.616	1778.185
628.744	1764.958
628.872	1766.294
629.000	1780.664
629.128	1786.445
629.256	1799.395
629.385	1785.798
629.513	1762.647
629.641	1796.345
629.769	1789.067
629.897	1794.286
630.025	1797.555
630.153	1810.378
630.281	1799.605
630.410	1791.647
630.538	1822.882
630.666	1807.420
630.794	1810.176
630.922	1800.168
631.050	1806.580
631.178	1816.731
631.306	1807.176
631.435	1814.025
631.563	1821.966
631.691	1799.773
631.819	1823.849
631.947	1828.681
632.075	1826.748
632.203	1835.269
632.331	1829.597
632.460	1817.941
632.588	1833.471
632.716	1826.529
632.844	1817.000
632.972	1830.538
633.100	1838.193
633.228	1844.445
633.356	1825.739
633.485	1827.975
633.613	1837.462
633.741	1831.866
633.869	1852.252
633.997	1842.277
634.125	1843.487
634.253	1838.689
634.381	1829.395
634.510	1857.857
634.638	1833.143
634.766	1836.756
634.894	1841.311
635.022	1845.731
635.150	1853.647
635.278	1859.244
635.406	1840.782
635.535	1852.639
635.663	1845.563
635.791	1840.437
635.919	1859.681
636.047	1851.790
636.175	1835.966
636.303	1853.160
636.431	1864.176
636.560	1850.252
636.688	1865.269
636.816	1865.092
636.944	1839.370
637.072	1863.008
637.200	1844.689
637.328	1843.874
637.456	1862.588
637.585	1856.118
637.713	1871.311
637.841	1857.697
637.969	1856.202
638.097	1851.286
638.225	1864.689
638.353	1886.555
638.481	1867.849
638.610	1876.429
638.738	1872.782
638.866	1861.605
638.994	1871.420
639.122	1884.798
639.250	1876.765
639.378	1894.109
639.506	1863.454
639.635	1875.345
639.763	1863.941
639.891	1884.387
640.019	1894.076
640.147	1882.815
640.275	1884.807
640.403	1882.739
640.531	1883.958
640.660	1883.798
640.788	1897.815
640.916	1887.697
641.044	1919.311
641.172	1900.303
641.300	1904.966
641.428	1899.630
641.556	1910.899
641.685	1904.605
641.813	1891.353
641.941	1900.798
642.069	1923.748
642.197	1913.697
642.325	1907.874
642.453	1923.462
642.581	1930.336
642.710	1909.538
642.838	1928.034
642.966	1921.655
643.094	1932.101
643.222	1926.185
643.350	1934.109
643.478	1932.151
643.606	1939.975
643.735	1938.143
643.863	1922.353
643.991	1955.521
644.119	1934.445
644.247	1938.765
644.375	1934.815
644.503	1952.941
644.631	1960.185
644.760	1950.109
644.888	1951.336
645.016	1953.866
645.144	1972.899
645.272	1952.891
645.400	1960.739
645.528	1958.975
645.656	1937.042
645.785	1953.815
645.913	1965.697
646.041	1964.975
646.169	1938.824
646.297	1941.378
646.425	1955.378
646.553	1946.597
646.681	1940.328
646.810	1942.303
646.938	1955.437
647.066	1944.101
647.194	1962.739
647.322	1946.084
647.450	1929.714
647.578	1949.588
647.706	1943.513
647.835	1942.613
647.963	1936.613
648.091	1939.008
648.219	1928.571
648.347	1938.681
648.475	1929.412
648.603	1945.513
648.731	1940.496
648.860	1920.487
648.988	1925.756
649.116	1929.034
649.244	1905.613
649.372	1908.866
649.500	1906.008
649.628	1916.378
649.756	1908.958
649.885	1894.092
650.013	1880.958
650.141	1889.723
650.269	1880.235
650.397	1887.025
650.525	1878.647
650.653	1892.782
650.781	1873.857
650.910	1861.681
651.038	1862.378
651.166	1856.210
651.294	1852.538
651.422	1849.874
651.550	1834.538
651.678	1841.160
651.806	1839.630
651.935	1852.303
652.063	1840.588
652.191	1817.756
652.319	1835.218
652.447	1821.361
652.575	1812.471
652.703	1801.681
652.831	1806.933
652.960	1803.992
653.088	1795.950
653.216	1789.059
653.344	1781.521
653.472	1783.395
653.600	1785.765
653.728	1778.882
653.856	1775.882
653.985	1799.588
654.113	1781.807
654.241	1775.395
654.369	1762.765
654.497	1790.487
654.625	1764.193
654.753	1781.723
654.881	1767.403
655.010	1772.622
655.138	1764.479
655.266	1758.059
655.394	1735.353
655.522	1754.353
655.650	1737.118
655.778	1751.908
655.906	1742.210
656.035	1733.126
656.163	1741.227
656.291	1731.908
656.419	1745.622
656.547	1736.361
656.675	1722.134
656.803	1721.050
656.931	1730.353
657.060	1723.067
657.188	1727.958
657.316	1716.042
657.444	1716.706
657.572	1720.143
657.700	1708.529
657.828	1711.504
657.956	1714.101
658.085	1726.361
658.213	1703.067
658.341	1699.891
658.469	1700.109
658.597	1717.353
658.725	1718.025
658.853	1687.647
658.981	1686.378
659.110	1687.193
659.238	1698.143
659.366	1689.017
659.494	1681.437
659.622	1683.891
659.750	1688.756
659.878	1682.134
660.006	1685.513
660.135	1669.563
660.263	1656.008
660.391	1660.185
660.519	1670.437
660.647	1654.555
660.775	1660.899
660.903	1653.252
661.031	1641.807
661.160	1648.992
661.288	1660.286
661.416	1656.966
661.544	1654.773
661.672	1627.134
661.800	1642.672
661.928	1638.950
662.056	1621.361
662.185	1626.924
662.313	1623.143
662.441	1634.815
662.569	1627.832
662.697	1623.555
662.825	1623.218
662.953	1613.563
663.081	1616.622
663.210	1619.597
663.338	1622.261
663.466	1602.773
663.594	1589.076
663.722	1581.286
663.850	1586.815
663.978	1579.832
664.106	1598.269
664.235	1581.134
664.363	1588.420
664.491	1576.672
664.619	1592.286
664.747	1583.664
664.875	1572.059
665.003	1566.908
665.131	1578.555
665.260	1571.067
665.388	1543.513
665.516	1551.361
665.644	1549.790
665.772	1550.706
665.900	1546.908
666.028	1540.815
666.156	1548.555
666.285	1537.311
666.413	1540.286
666.541	1534.050
666.669	1523.908
666.797	1528.160
666.925	1525.672
667.053	1531.613
667.181	1513.941
667.310	1504.924
667.438	1505.765
667.566	1502.445
667.694	1506.706
667.822	1505.983
667.950	1495.017
668.078	1487.723
668.206	1502.605
668.335	1482.824
668.463	1488.034
668.591	1471.916
668.719	1473.403
668.847	1471.832
668.975	1472.176
669.103	1470.210
669.231	1473.580
669.360	1461.874
669.488	1465.739
669.616	1453.303
669.744	1455.353
669.872	1447.429
670.000	1465.361
670.128	1429.765
670.256	1432.933
670.385	1430.403
670.513	1437.765
670.641	1422.336
670.769	1432.689
670.897	1411.664
671.025	1414.202
671.153	1412.101
671.281	1419.361
671.410	1410.479
671.538	1396.765
671.666	1401.076
671.794	1398.092
671.922	1394.118
672.050	1391.563
672.178	1383.118
672.306	1384.109
672.435	1379.748
672.563	1378.109
672.691	1376.714
672.819	1375.445
672.947	1362.521
673.075	1346.697
673.203	1344.546
673.331	1347.924
673.460	1345.193
673.588	1333.681
673.716	1341.227
673.844	1332.975
673.972	1336.756
674.100	1329.983
674.228	1323.655
674.356	1306.487
674.485	1317.008
674.613	1294.395
674.741	1308.017
674.869	1298.563
674.997	1295.597
675.125	1287.042
675.253	1267.798
675.381	1280.261
675.510	1269.185
675.638	1264.109
675.766	1266.882
675.894	1270.168
676.022	1257.361
676.150	1250.336
676.278	1248.471
676.406	1248.244
676.535	1237.412
676.663	1243.546
676.791	1213.076
676.919	1218.361
677.047	1219.681
677.175	1207.403
677.303	1213.420
677.431	1213.176
677.560	1198.286
677.688	1196.227
677.816	1188.832
677.944	1184.000
678.072	1179.403
678.200	1178.328
678.328	1166.042
678.456	1166.924
678.585	1169.370
678.713	1161.790
678.841	1145.555
678.969	1152.261
679.097	1148.101
679.225	1141.000
679.353	1138.983
679.481	1124.630
679.610	1138.193
679.738	1132.655
679.866	1125.000
679.994	1124.244
680.122	1117.025
680.250	1116.076
680.378	1109.941
680.506	1099.328
680.635	1096.034
680.763	1095.160
680.891	1087.118
681.019	1093.521
681.147	1086.689
681.275	1090.034
681.403	1070.513
681.531	1076.588
681.660	1071.605
681.788	1060.874
681.916	1063.008
682.044	1069.866
682.172	1044.412
682.300	1042.429
682.428	1050.395
682.556	1043.109
682.685	1047.454
682.813	1034.538
682.941	1029.672
683.069	1029.706
683.197	1029.387
683.325	1016.345
683.453	1018.361
683.581	1010.798
683.710	998.353
683.838	1007.647
683.966	1008.697
684.094	1003.294
684.222	1003.345
684.350	995.361
684.478	997.958
684.606	1001.916
684.735	994.950
684.863	984.059
684.991	978.042
685.119	971.487
685.247	970.723
685.375	962.756
685.503	975.437
685.631	972.370
685.760	963.487
685.888	960.403
686.016	955.092
686.144	956.723
686.272	947.832
686.400	954.311
686.528	945.168
686.656	948.983
686.785	945.395
686.913	942.445
687.041	938.000
687.169	932.840
687.297	936.227
687.425	923.185
687.553	928.924
687.681	924.992
687.810	924.891
687.938	915.286
688.066	917.790
688.194	915.815
688.322	910.084
688.450	909.118
688.578	912.773
688.706	907.891
688.835	900.420
688.963	904.714
689.091	899.025
689.219	891.882
689.347	886.227
689.475	893.815
689.603	878.622
689.731	891.151
689.860	880.966
689.988	878.202
690.116	886.412
690.244	878.269
690.372	872.235
690.500	868.723
690.628	865.471
690.756	868.185
690.885	862.134
691.013	859.076
691.141	861.714
691.269	861.563
691.397	853.983
691.525	851.983
691.653	857.790
691.781	846.311
691.910	854.966
692.038	838.261
692.166	843.412
692.294	840.546
692.422	834.571
692.550	845.832
692.678	830.126
692.806	827.101
692.935	825.025
693.063	820.941
693.191	822.723
693.319	814.160
693.447	820.378
693.575	812.731
693.703	805.067
693.831	811.429
693.960	808.731
694.088	805.471
694.216	799.706
694.344	795.252
694.472	792.546
694.600	794.345
694.728	787.235
694.856	786.303
694.985	782.563
695.113	779.168
695.241	771.462
695.369	780.739
695.497	770.555
695.625	778.378
695.753	772.286
695.881	757.092
696.010	760.765
696.138	755.815
696.266	753.655
696.394	752.966
696.522	745.739
696.650	740.143
696.778	743.941
696.906	742.084
697.035	735.613
697.163	729.958
697.291	724.622
697.419	726.252
697.547	718.958
697.675	719.756
697.803	716.622
697.931	717.361
698.060	714.328
698.188	707.269
698.316	707.697
698.444	697.319
698.572	697.765
698.700	700.227
698.828	691.538
698.956	688.109
699.085	689.966
699.213	679.815
699.341	680.538
699.469	688.941
699.597	681.899
699.725	679.605
699.853	665.227
699.981	675.218
700.110	663.420
700.238	662.857
700.366	662.269
700.494	657.513
700.622	663.370
700.750	650.950
700.878	656.412
701.006	649.546
701.135	646.479
701.263	650.807
701.391	644.941
701.519	644.613
701.647	639.933
701.775	642.580
701.903	636.723
702.031	634.731
702.160	629.042
702.288	626.924
702.416	622.042
702.544	623.168
702.672	621.706
702.800	619.504
702.928	622.580
703.056	610.076
703.185	615.874
703.313	607.748
703.441	609.269
703.569	605.571
703.697	603.891
703.825	598.496
703.953	604.546
704.081	595.412
704.210	589.294
704.338	595.723
704.466	595.630
704.594	588.218
704.722	589.773
704.850	581.479
704.978	585.765
705.106	577.983
705.235	567.445
705.363	574.378
705.491	578.529
705.619	571.445
705.747	570.034
705.875	571.479
706.003	561.513
706.131	564.361
706.260	559.345
706.388	560.185
706.516	550.092
706.644	554.168
706.772	554.109
706.900	547.538
707.028	551.916
707.156	543.773
707.285	540.655
707.413	534.118
707.541	534.714
707.669	532.361
707.797	535.319
707.925	526.756
708.053	527.571
708.181	531.706
708.310	524.277
708.438	518.538
708.566	516.950
708.694	516.353
708.822	518.042
708.950	512.176
709.078	504.924
709.206	510.185
709.335	507.109
709.463	504.622
709.591	503.689
709.719	502.227
709.847	500.471
709.975	491.210
710.103	495.101
710.231	494.168
710.360	485.655
710.488	484.765
710.616	486.017
710.744	480.218
710.872	481.899
711.000	478.655
711.128	468.933
711.256	470.655
711.385	475.513
711.513	475.941
711.641	470.235
711.769	464.664
711.897	470.084
712.025	460.261
712.153	461.723
712.281	460.092
712.410	456.277
712.538	458.445
712.666	454.454
712.794	453.168
712.922	457.319
713.050	447.697
713.178	450.193
713.306	450.109
713.435	449.034
713.563	443.294
713.691	447.328
713.819	438.824
713.947	432.076
714.075	434.689
714.203	438.370
714.331	441.059
714.460	430.697
714.588	434.420
714.716	428.479
714.844	425.597
714.972	420.160
715.100	423.244
715.228	423.849
715.356	420.647
715.485	424.471
715.613	420.345
715.741	417.000
715.869	416.118
715.997	410.647
716.125	407.303
716.253	408.555
716.381	411.622
716.510	411.118
716.638	408.782
716.766	404.218
716.894	405.966
717.022	402.185
717.150	404.126
717.278	402.042
717.406	397.765
717.535	398.025
717.663	397.034
717.791	396.168
717.919	395.555
718.047	385.983
718.175	386.941
718.303	390.160
718.431	388.924
718.560	390.286
718.688	387.882
718.816	378.664
718.944	386.462
719.072	381.723
719.200	376.487
719.328	378.950
719.456	376.580
719.585	380.882
719.713	376.782
719.841	376.681
719.969	375.412
720.097	369.706
720.225	367.042
720.353	365.387
720.481	372.042
720.610	364.992
720.738	362.773
720.866	365.773
720.994	367.025
721.122	361.882
721.250	361.395
721.378	356.252
721.506	359.664
721.635	356.429
721.763	355.555
721.891	357.378
722.019	353.076
722.147	349.286
722.275	351.689
722.403	347.109
722.531	349.412
722.660	347.487
722.788	346.840
722.916	342.319
723.044	343.916
723.172	339.689
723.300	341.420
723.428	339.059
723.556	338.311
723.685	341.311
723.813	336.218
723.941	331.143
724.069	336.672
724.197	328.933
724.325	331.605
724.453	331.076
724.581	327.975
724.710	328.101
724.838	326.966
724.966	326.008
725.094	324.941
725.222	323.496
725.350	320.782
725.478	324.109
725.606	319.151
725.735	312.874
725.863	316.437
725.991	312.529
726.119	314.235
726.247	310.176
726.375	310.261
726.503	314.370
726.631	309.471
726.760	307.706
726.888	309.521
727.016	306.395
727.144	307.387
727.272	306.076
727.400	302.798
727.528	300.941
727.656	299.765
727.785	295.185
727.913	299.647
728.041	299.185
728.169	298.000
728.297	294.076
728.425	293.941
728.553	293.387
728.681	291.286
728.810	289.655
728.938	288.345
729.066	289.513
729.194	291.353
729.322	286.050
729.450	283.277
729.578	286.655
729.706	280.092
729.835	284.782
729.963	283.378
730.091	280.050
730.219	280.160
730.347	278.454
730.475	275.185
730.603	277.723
730.731	280.681
730.860	272.891
730.988	275.000
731.116	274.672
731.244	272.966
731.372	269.655
731.500	271.983
731.628	268.849
731.756	268.487
731.885	266.227
732.013	266.580
732.141	265.882
732.269	265.597
732.397	268.193
732.525	263.647
732.653	267.571
732.781	262.336
732.910	262.378
733.038	264.008
733.166	261.731
733.294	262.697
733.422	258.034
733.550	258.151
733.678	259.429
733.806	262.706
733.935	256.277
734.063	255.126
734.191	255.975
734.319	251.555
734.447	251.689
734.575	255.151
734.703	251.546
734.831	250.681
734.960	250.412
735.088	250.269
735.216	247.227
735.344	249.050
735.472	249.269
735.600	248.042
735.728	248.210
735.856	246.336
735.985	245.790
736.113	247.000
736.241	245.412
736.369	241.479
736.497	242.849
736.625	243.000
736.753	242.832
736.881	242.714
737.010	240.966
737.138	240.714
737.266	235.563
737.394	236.193
737.522	240.454
737.650	234.437
737.778	236.076
737.906	232.756
738.035	231.445
738.163	234.908
738.291	231.277
738.419	233.303
738.547	233.378
738.675	233.529
738.803	229.235
738.931	229.723
739.060	229.815
739.188	228.496
739.316	230.630
739.444	228.891
739.572	227.882
739.700	226.395
739.828	227.924
739.956	225.866
740.085	228.151
740.213	225.697
740.341	219.487
740.469	226.025
740.597	223.126
740.725	225.874
740.853	220.824
740.981	220.916
741.110	218.403
741.238	220.815
741.366	222.193
741.494	221.908
741.622	215.681
741.750	219.815
741.878	216.908
742.006	213.437
742.135	215.924
742.263	214.941
742.391	212.168
742.519	218.261
742.647	214.807
742.775	217.504
742.903	210.773
743.031	213.286
743.160	211.933
743.288	212.109
743.416	210.496
743.544	211.630
743.672	212.681
743.800	210.689
743.928	207.891
744.056	209.345
744.185	210.471
744.313	209.874
744.441	208.840
744.569	205.513
744.697	208.832
744.825	207.588
744.953	208.412
745.081	206.084
745.210	204.025
745.338	205.387
745.466	204.840
745.594	203.160
745.722	204.176
745.850	200.916
745.978	202.580
746.106	201.479
746.235	202.244
746.363	201.235
746.491	200.824
746.619	199.840
746.747	200.496
746.875	200.513
747.003	198.597
747.131	197.613
747.260	200.118
747.388	197.857
747.516	197.958
747.644	196.202
747.772	199.437
747.900	194.815
748.028	195.697
748.156	190.849
748.285	195.815
748.413	193.966
748.541	194.193
748.669	193.950
748.797	191.017
748.925	190.109
749.053	190.261
749.181	190.185
749.310	191.529
749.438	190.765
749.566	189.555
749.694	191.025
749.822	188.983
749.950	190.639
750.078	189.613
750.206	187.916
750.335	187.782
750.463	188.202
750.591	186.109
750.719	188.269
750.847	185.681
750.975	184.992
751.103	184.412
751.231	183.874
751.360	181.134
751.488	182.353
751.616	180.462
751.744	182.345
751.872	180.353
752.000	183.008
752.128	178.966
752.256	182.765
752.385	179.387
752.513	180.193
752.641	175.345
752.769	181.529
752.897	180.008
753.025	173.378
753.153	178.328
753.281	177.916
753.410	175.672
753.538	178.437
753.666	176.454
753.794	175.118
753.922	174.261
754.050	177.992
754.178	176.244
754.306	174.319
754.435	173.697
754.563	175.706
754.691	171.866
754.819	173.050
754.947	172.521
755.075	174.025
755.203	173.042
755.331	173.345
755.460	171.790
755.588	169.336
755.716	170.429
755.844	169.933
755.972	168.345
756.100	172.134
756.228	171.370
756.356	168.336
756.485	169.613
756.613	169.597
756.741	168.261
756.869	169.681
756.997	167.639
757.125	165.748
757.253	166.244
757.381	169.101
757.510	167.025
757.638	165.714
757.766	165.639
757.894	163.992
758.022	164.966
758.150	165.261
758.278	164.109
758.406	164.185
758.535	163.773
758.663	163.782
758.791	160.513
758.919	163.168
759.047	162.168
759.175	163.151
759.303	162.496
759.431	158.924
759.560	161.412
759.688	161.521
759.816	163.370
759.944	162.739
760.072	160.462
760.200	160.185
760.328	161.395
760.456	160.311
760.585	159.017
760.713	158.613
760.841	159.109
760.969	160.689
761.097	158.134
761.225	160.345
761.353	158.227
761.481	158.294
761.610	156.437
761.738	157.529
761.866	158.185
761.994	157.882
762.122	157.244
762.250	155.782
762.378	153.403
762.506	154.370
762.635	155.513
762.763	153.773
762.891	153.899
763.019	154.168
763.147	154.563
763.275	155.218
763.403	154.420
763.531	152.252
763.660	150.462
763.788	154.378
763.916	153.050
764.044	152.118
764.172	152.765
764.300	150.429
764.428	150.580
764.556	151.067
764.685	149.950
764.813	151.227
764.941	149.639
765.069	149.286
765.197	150.681
765.325	148.891
765.453	150.025
765.581	149.924
765.710	150.109
765.838	147.252
765.966	148.059
766.094	148.244
766.222	150.252
766.350	148.412
766.478	149.109
766.606	146.143
766.735	147.790
766.863	146.723
766.991	144.378
767.119	146.992
767.247	147.244
767.375	144.924
767.503	143.597
767.631	146.840
767.760	144.966
767.888	145.109
768.016	145.235
768.144	146.496
768.272	146.235
768.400	144.924
768.528	144.815
768.656	142.412
768.785	143.840
768.913	143.471
769.041	144.017
769.169	142.496
769.297	143.235
769.425	142.202
769.553	140.311
769.681	143.387
769.810	146.588
769.938	141.546
770.066	142.983
770.194	141.798
770.322	143.101
770.450	141.345
770.578	142.353
770.706	140.916
770.835	140.924
770.963	140.294
771.091	141.689
771.219	139.908
771.347	142.613
771.475	139.370
771.603	140.294
771.731	139.966
771.860	140.345
771.988	141.521
772.116	139.739
772.244	139.899
772.372	138.689
772.500	139.370
772.628	140.092
772.756	138.605
772.885	141.134
773.013	139.681
773.141	135.345
773.269	138.143
773.397	140.160
773.525	137.269
773.653	138.933
773.781	137.513
773.910	136.067
774.038	137.387
774.166	137.252
774.294	139.151
774.422	134.992
774.550	136.319
774.678	137.109
774.806	134.168
774.935	136.874
775.063	136.361
775.191	134.319
775.319	135.529
775.447	136.454
775.575	135.025
775.703	135.076
775.831	135.151
775.960	134.345
776.088	134.773
776.216	134.731
776.344	133.874
776.472	134.790
776.600	134.319
776.728	133.521
776.856	132.832
776.985	133.538
777.113	134.630
777.241	133.815
777.369	133.210
777.497	130.983
777.625	132.387
777.753	132.395
777.881	130.882
778.010	131.160
778.138	130.345
778.266	128.697
778.394	130.857
778.522	130.714
778.650	131.370
778.778	131.118
778.906	130.588
779.035	131.689
779.163	130.857
779.291	130.034
779.419	129.328
779.547	131.941
779.675	129.622
779.803	128.916
779.931	130.126
780.060	129.395
780.188	130.008
780.316	129.681
780.444	131.084
780.572	127.899
780.700	131.412
780.828	129.395
780.956	130.311
781.085	128.672
781.213	129.277
781.341	128.807
781.469	126.941
781.597	128.866
781.725	128.000
781.853	128.555
781.981	127.714
782.110	128.008
782.238	128.311
782.366	126.664
782.494	127.908
782.622	126.958
782.750	128.387
782.878	126.815
783.006	128.008
783.135	125.941
783.263	126.387
783.391	126.597
783.519	127.798
783.647	124.538
783.775	125.479
783.903	126.899
784.031	124.924
784.160	125.933
784.288	124.387
784.416	125.000
784.544	123.714
784.672	122.933
784.800	125.151
784.928	124.933
785.056	124.504
785.185	125.395
785.313	123.328
785.441	123.613
785.569	124.176
785.697	126.840
785.825	123.336
785.953	123.697
786.081	123.210
786.210	122.311
786.338	122.731
786.466	123.378
786.594	121.370
786.722	122.513
786.850	124.008
786.978	122.824
787.106	121.908
787.235	120.832
787.363	122.529
787.491	121.992
787.619	121.613
787.747	121.857
787.875	120.630
788.003	121.706
788.131	119.336
788.260	121.950
788.388	121.277
788.516	121.563
788.644	120.605
788.772	120.807
788.900	121.597
789.028	119.496
789.156	121.471
789.285	119.462
789.413	119.563
789.541	119.874
789.669	119.613
789.797	119.681
789.925	119.429
790.053	119.882
790.181	120.908
790.310	119.025
790.438	119.034
790.566	120.311
790.694	118.420
790.822	119.126
790.950	119.202
791.078	119.042
791.206	117.807
791.335	118.622
791.463	118.286
791.591	117.361
791.719	119.832
791.847	117.765
791.975	117.076
792.103	116.546
792.231	119.824
792.360	117.529
792.488	117.496
792.616	117.924
792.744	118.824
792.872	116.697
793.000	116.546
793.128	116.908
793.256	118.202
793.385	115.286
793.513	116.706
793.641	117.664
793.769	116.303
793.897	115.756
794.025	116.723
794.153	116.765
794.281	115.630
794.410	115.513
794.538	117.471
794.666	116.655
794.794	116.303
794.922	116.597
795.050	116.345
795.178	116.050
795.306	114.471
795.435	116.134
795.563	115.613
795.691	115.756
795.819	113.361
795.947	114.739
796.075	115.252
796.203	115.950
796.331	114.311
796.460	114.445
796.588	114.790
796.716	115.555
796.844	114.294
796.972	115.857
797.100	115.202
797.228	115.798
797.356	116.807
797.485	114.697
797.613	114.681
797.741	114.303
797.869	114.269
797.997	114.681
798.125	113.748
798.253	114.849
798.381	114.202
798.510	114.076
798.638	112.639
798.766	113.218
798.894	112.924
799.022	112.571
799.150	112.445
799.278	111.185
799.406	113.958
799.535	113.050
799.663	113.092
799.791	111.866
799.919	112.899
800.047	112.286
800.175	112.218
800.303	112.815
800.431	112.328
800.560	111.983
800.688	112.908
800.816	111.941
800.944	112.235
801.072	112.924
801.200	112.916
801.328	112.521
801.456	113.101
801.585	112.378
801.713	111.739
801.841	112.622
801.969	111.445
802.097	112.571
802.225	113.471
802.353	112.387
802.481	111.454
802.610	112.765
802.738	111.639
802.866	111.647
802.994	111.076
803.122	111.739
803.250	112.403
803.378	112.176
803.506	111.092
803.635	110.899
803.763	110.975
803.891	111.941
804.019	110.966
804.147	111.084
804.275	109.798
804.403	110.067
804.531	110.723
804.660	110.849
804.788	110.050
804.916	110.168
805.044	111.261
805.172	110.807
805.300	110.134
805.428	110.874
805.556	109.983
805.685	110.496
805.813	110.992
805.941	111.176
806.069	110.176
806.197	111.437
806.325	108.882
806.453	110.815
806.581	110.370
806.710	109.765
806.838	109.445
806.966	110.134
807.094	110.118
807.222	109.739
807.350	110.059
807.478	109.193
807.606	109.496
807.735	109.866
807.863	110.227
807.991	109.454
808.119	109.933
808.247	109.613
808.375	109.387
808.503	108.050
808.631	110.387
808.760	110.479
808.888	107.950
809.016	109.672
809.144	110.588
809.272	110.672
809.400	110.126
809.528	109.193
809.656	108.672
809.785	109.370
809.913	108.874
810.041	109.429
810.169	108.513
810.297	109.319
810.425	108.748
810.553	107.681
810.681	109.487
810.810	109.345
810.938	109.269
811.066	108.286
811.194	108.042
811.322	108.681
811.450	109.092
811.578	109.513
811.706	109.739
811.835	109.361
811.963	108.328
812.091	108.681
812.219	109.445
812.347	109.126
812.475	109.403
812.603	109.479
812.731	106.908
812.860	108.706
812.988	108.210
813.116	108.067
813.244	108.689
813.372	109.504
813.500	108.723
813.628	109.218
813.756	106.815
813.885	108.697
814.013	108.286
814.141	108.924
814.269	107.546
814.397	108.697
814.525	107.958
814.653	108.655
814.781	107.084
814.910	107.622
815.038	108.286
815.166	108.840
815.294	108.420
815.422	109.185
815.550	107.874
815.678	107.118
815.806	107.118
815.935	107.319
816.063	107.496
816.191	107.126
816.319	106.647
816.447	108.118
816.575	107.252
816.703	108.403
816.831	107.580
816.960	108.160
817.088	107.471
817.216	108.252
817.344	107.160
817.472	108.378
817.600	107.118
817.728	106.765
817.856	107.790
817.985	106.689
818.113	107.622
818.241	108.076
818.369	106.067
818.497	107.966
818.625	106.857
818.753	106.496
818.881	107.328
819.010	107.504
819.138	107.000
819.266	106.992
819.394	107.109
819.522	106.445
819.650	108.218
819.778	106.588
819.906	107.084
820.035	107.160
820.163	106.924
820.291	106.370
820.419	105.655
820.547	107.462
820.675	105.605
820.803	107.866
820.931	106.319
821.060	105.319
821.188	106.445
821.316	105.605
821.444	107.000
821.572	106.202
821.700	106.471
821.828	107.504
821.956	107.202
822.085	106.815
822.213	107.613
822.341	106.160
822.469	105.798
822.597	106.101
822.725	105.983
822.853	105.765
822.981	106.076
823.110	106.748
823.238	103.681
823.366	106.244
823.494	105.496
823.622	105.126
823.750	105.908
823.878	104.706
824.006	107.059
824.135	106.286
824.263	106.496
824.391	105.538
824.519	107.235
824.647	106.235
824.775	106.353
824.903	106.454
825.031	105.513
825.160	106.840
825.288	106.395
825.416	106.218
825.544	105.874
825.672	107.034
825.800	105.807
825.928	106.479
826.056	105.605
826.185	106.328
826.313	105.941
826.441	106.311
826.569	105.689
826.697	104.739
826.825	105.824
826.953	106.269
827.081	104.992
827.210	105.613
827.338	105.336
827.466	105.471
827.594	106.361
827.722	105.286
827.850	105.437
827.978	104.975
828.106	105.849
828.235	106.798
828.363	105.521
828.491	105.639
828.619	104.924
828.747	105.395
828.875	105.571
829.003	106.218
829.131	106.546
829.260	106.714
829.388	105.454
829.516	105.731
829.644	105.286
829.772	105.597
829.900	105.454
830.028	105.983
830.156	105.286
830.285	105.832
830.413	105.261
830.541	105.513
830.669	105.042
830.797	104.496
830.925	104.899
831.053	103.756
831.181	105.084
831.310	105.840
831.438	105.790
831.566	105.605
831.694	105.370
831.822	104.731
831.950	104.597
832.078	104.529
832.206	104.966
832.335	104.546
832.463	105.899
832.591	105.193
832.719	104.613
832.847	104.773
832.975	104.185
833.103	105.403
833.231	105.042
833.360	105.790
833.488	105.353
833.616	105.412
833.744	103.798
833.872	105.538
834.000	105.975
834.128	106.134
834.256	105.025
834.385	104.840
834.513	105.908
834.641	103.420
834.769	104.378
834.897	105.084
835.025	104.454
835.153	103.882
835.281	104.571
835.410	104.739
835.538	104.983
835.666	104.697
835.794	105.050
835.922	105.445
836.050	104.941
836.178	104.235
836.306	104.857
836.435	105.151
836.563	103.563
836.691	104.975
836.819	105.765
836.947	104.622
837.075	104.160
837.203	103.832
837.331	104.756
837.460	104.840
837.588	103.891
837.716	105.353
837.844	105.630
837.972	104.151
838.100	104.866
838.228	104.832
838.356	103.899
838.485	102.277
838.613	104.832
838.741	105.101
838.869	104.479
838.997	104.504
839.125	102.798
839.253	103.824
839.381	104.412
839.510	104.042
839.638	104.277
839.766	104.311
839.894	104.924
840.022	104.529
840.150	104.958
840.278	102.950
840.406	104.588
840.535	104.706
840.663	102.950
840.791	103.126
840.919	103.689
841.047	103.622
841.175	104.084
841.303	104.294
841.431	104.790
841.560	104.445
841.688	104.445
841.816	103.950
841.944	103.840
842.072	103.857
842.200	102.824
842.328	103.689
842.456	103.555
842.585	104.513
842.713	104.042
842.841	103.891
842.969	104.126
843.097	104.521
843.225	103.546
843.353	104.387
843.481	103.731
843.610	104.454
843.738	103.084
843.866	103.765
