70-120-unpol_at_679.99nm_cut_at_1283.50Y_01.dat
24.01.2024
11:33:27
cut middle at Y: 1283.50
top cursor: 1343 down cursor: 1224 mean of: 119 lines , 2560 datapoints
wavelength(nm)	intensity[arb. units]
515.994	1122.899
516.122	1064.118
516.250	1054.210
516.378	1023.739
516.506	1045.605
516.635	1040.714
516.763	1059.588
516.891	1059.387
517.019	1057.689
517.147	1065.992
517.275	1056.546
517.403	1061.218
517.531	1054.008
517.660	1048.798
517.788	1063.445
517.916	1070.042
518.044	1061.076
518.172	1062.840
518.300	1064.101
518.428	1059.336
518.556	1070.580
518.685	1074.487
518.813	1075.706
518.941	1091.563
519.069	1070.840
519.197	1074.429
519.325	1092.218
519.453	1091.311
519.581	1100.202
519.710	1085.723
519.838	1090.655
519.966	1090.908
520.094	1095.311
520.222	1099.798
520.350	1112.782
520.478	1115.328
520.606	1112.185
520.735	1118.882
520.863	1121.084
520.991	1130.303
521.119	1116.370
521.247	1123.126
521.375	1132.336
521.503	1136.664
521.631	1143.849
521.760	1149.731
521.888	1149.143
522.016	1155.294
522.144	1146.739
522.272	1154.076
522.400	1160.454
522.528	1168.639
522.656	1170.387
522.785	1170.739
522.913	1180.008
523.041	1180.000
523.169	1168.361
523.297	1171.109
523.425	1184.076
523.553	1181.143
523.681	1170.647
523.810	1194.546
523.938	1197.277
524.066	1181.874
524.194	1195.941
524.322	1193.437
524.450	1198.563
524.578	1184.176
524.706	1197.176
524.835	1189.857
524.963	1196.521
525.091	1178.891
525.219	1193.899
525.347	1185.739
525.475	1199.252
525.603	1199.261
525.731	1201.185
525.860	1201.992
525.988	1187.210
526.116	1190.286
526.244	1205.126
526.372	1194.462
526.500	1200.874
526.628	1218.563
526.756	1197.714
526.885	1211.966
527.013	1203.143
527.141	1207.496
527.269	1206.134
527.397	1217.319
527.525	1209.899
527.653	1206.815
527.781	1206.462
527.910	1222.655
528.038	1220.992
528.166	1233.899
528.294	1220.992
528.422	1213.235
528.550	1233.840
528.678	1227.555
528.806	1245.101
528.935	1241.588
529.063	1231.857
529.191	1232.462
529.319	1251.605
529.447	1252.227
529.575	1255.101
529.703	1257.908
529.831	1260.050
529.960	1251.891
530.088	1256.613
530.216	1267.319
530.344	1254.092
530.472	1257.899
530.600	1264.059
530.728	1273.496
530.856	1275.496
530.985	1269.008
531.113	1263.378
531.241	1281.143
531.369	1280.941
531.497	1280.370
531.625	1282.370
531.753	1270.345
531.881	1290.689
532.010	1287.471
532.138	1281.353
532.266	1282.328
532.394	1273.824
532.522	1276.933
532.650	1284.975
532.778	1282.269
532.906	1278.319
533.035	1289.613
533.163	1274.580
533.291	1274.126
533.419	1262.235
533.547	1279.756
533.675	1271.773
533.803	1270.050
533.931	1276.613
534.060	1282.739
534.188	1287.143
534.316	1287.370
534.444	1278.134
534.572	1292.866
534.700	1284.664
534.828	1276.227
534.956	1286.857
535.085	1291.361
535.213	1295.286
535.341	1301.538
535.469	1295.429
535.597	1305.134
535.725	1306.857
535.853	1320.471
535.981	1312.765
536.110	1326.790
536.238	1331.345
536.366	1330.092
536.494	1318.908
536.622	1329.378
536.750	1338.185
536.878	1337.983
537.006	1348.639
537.135	1352.815
537.263	1351.748
537.391	1373.580
537.519	1349.538
537.647	1373.916
537.775	1368.151
537.903	1377.555
538.031	1375.378
538.160	1380.622
538.288	1384.479
538.416	1383.655
538.544	1372.050
538.672	1393.529
538.800	1399.580
538.928	1391.437
539.056	1392.185
539.185	1405.714
539.313	1391.050
539.441	1398.244
539.569	1405.496
539.697	1409.303
539.825	1412.294
539.953	1407.697
540.081	1393.714
540.210	1408.874
540.338	1417.504
540.466	1412.966
540.594	1409.622
540.722	1400.538
540.850	1402.361
540.978	1407.647
541.106	1422.134
541.235	1425.479
541.363	1409.966
541.491	1412.924
541.619	1412.454
541.747	1404.092
541.875	1432.714
542.003	1406.689
542.131	1422.714
542.260	1422.218
542.388	1409.723
542.516	1428.017
542.644	1424.462
542.772	1429.319
542.900	1431.454
543.028	1438.857
543.156	1444.824
543.285	1441.269
543.413	1429.504
543.541	1438.185
543.669	1441.655
543.797	1445.294
543.925	1442.269
544.053	1455.697
544.181	1454.521
544.310	1434.739
544.438	1444.218
544.566	1450.378
544.694	1460.218
544.822	1458.185
544.950	1454.588
545.078	1446.782
545.206	1451.143
545.335	1472.092
545.463	1444.109
545.591	1464.445
545.719	1463.412
545.847	1456.782
545.975	1466.697
546.103	1451.723
546.231	1468.756
546.360	1467.412
546.488	1475.462
546.616	1474.815
546.744	1477.294
546.872	1469.109
547.000	1480.269
547.128	1475.924
547.256	1483.647
547.385	1474.101
547.513	1478.286
547.641	1476.706
547.769	1489.328
547.897	1480.286
548.025	1486.445
548.153	1485.370
548.281	1478.529
548.410	1493.513
548.538	1495.202
548.666	1491.235
548.794	1485.185
548.922	1494.622
549.050	1501.874
549.178	1496.017
549.306	1507.118
549.435	1519.613
549.563	1501.202
549.691	1497.529
549.819	1519.639
549.947	1513.294
550.075	1513.101
550.203	1502.050
550.331	1503.689
550.460	1512.630
550.588	1511.908
550.716	1528.908
550.844	1499.134
550.972	1509.571
551.100	1511.479
551.228	1513.193
551.356	1500.118
551.485	1505.748
551.613	1499.655
551.741	1497.765
551.869	1493.471
551.997	1493.202
552.125	1491.429
552.253	1497.496
552.381	1491.950
552.510	1482.294
552.638	1478.756
552.766	1490.756
552.894	1483.824
553.022	1487.185
553.150	1481.941
553.278	1480.899
553.406	1483.403
553.535	1481.966
553.663	1472.378
553.791	1477.471
553.919	1472.008
554.047	1489.529
554.175	1475.723
554.303	1474.571
554.431	1468.008
554.560	1487.042
554.688	1480.294
554.816	1488.269
554.944	1476.563
555.072	1481.782
555.200	1492.983
555.328	1478.017
555.456	1493.151
555.585	1491.580
555.713	1490.345
555.841	1501.202
555.969	1493.395
556.097	1498.706
556.225	1503.395
556.353	1511.471
556.481	1496.185
556.610	1518.538
556.738	1525.000
556.866	1526.924
556.994	1507.000
557.122	1509.370
557.250	1534.303
557.378	1532.563
557.506	1526.580
557.635	1534.479
557.763	1520.899
557.891	1539.832
558.019	1532.235
558.147	1546.849
558.275	1540.697
558.403	1553.319
558.531	1538.756
558.660	1543.790
558.788	1545.563
558.916	1556.218
559.044	1545.739
559.172	1556.832
559.300	1563.891
559.428	1560.437
559.556	1562.941
559.685	1560.067
559.813	1555.445
559.941	1560.370
560.069	1569.277
560.197	1562.471
560.325	1562.126
560.453	1566.294
560.581	1563.983
560.710	1567.151
560.838	1572.151
560.966	1570.765
561.094	1587.992
561.222	1567.933
561.350	1554.496
561.478	1558.277
561.606	1563.597
561.735	1559.008
561.863	1557.412
561.991	1562.723
562.119	1560.429
562.247	1567.681
562.375	1569.244
562.503	1561.067
562.631	1564.008
562.760	1560.706
562.888	1562.706
563.016	1561.420
563.144	1557.899
563.272	1563.807
563.400	1546.471
563.528	1547.235
563.656	1559.983
563.785	1567.630
563.913	1553.000
564.041	1556.151
564.169	1560.277
564.297	1568.966
564.425	1564.319
564.553	1579.672
564.681	1569.311
564.810	1562.908
564.938	1571.345
565.066	1575.420
565.194	1586.462
565.322	1586.798
565.450	1583.118
565.578	1589.160
565.706	1588.966
565.835	1588.916
565.963	1591.269
566.091	1581.378
566.219	1597.294
566.347	1594.807
566.475	1600.437
566.603	1600.647
566.731	1610.336
566.860	1616.807
566.988	1602.092
567.116	1631.361
567.244	1619.126
567.372	1625.782
567.500	1630.992
567.628	1632.311
567.756	1624.622
567.885	1643.555
568.013	1653.765
568.141	1648.639
568.269	1653.908
568.397	1646.328
568.525	1647.261
568.653	1667.378
568.781	1667.655
568.910	1694.235
569.038	1682.252
569.166	1666.546
569.294	1681.277
569.422	1688.689
569.550	1671.992
569.678	1693.084
569.806	1687.185
569.935	1699.588
570.063	1712.992
570.191	1715.731
570.319	1711.538
570.447	1710.950
570.575	1718.857
570.703	1727.899
570.831	1727.622
570.960	1727.092
571.088	1732.025
571.216	1735.210
571.344	1738.790
571.472	1740.101
571.600	1753.655
571.728	1745.134
571.856	1748.412
571.985	1761.126
572.113	1757.370
572.241	1762.143
572.369	1773.706
572.497	1782.723
572.625	1778.471
572.753	1761.714
572.881	1773.235
573.010	1771.958
573.138	1801.437
573.266	1802.378
573.394	1803.588
573.522	1798.857
573.650	1800.050
573.778	1796.706
573.906	1802.059
574.035	1792.487
574.163	1806.261
574.291	1803.353
574.419	1812.689
574.547	1822.395
574.675	1820.185
574.803	1812.176
574.931	1806.261
575.060	1834.059
575.188	1818.134
575.316	1818.244
575.444	1830.067
575.572	1835.437
575.700	1805.319
575.828	1837.487
575.956	1850.487
576.085	1828.328
576.213	1839.353
576.341	1830.723
576.469	1853.244
576.597	1824.739
576.725	1830.445
576.853	1832.134
576.981	1825.319
577.110	1828.445
577.238	1855.126
577.366	1842.294
577.494	1830.395
577.622	1838.277
577.750	1847.336
577.878	1832.454
578.006	1866.739
578.135	1837.168
578.263	1834.395
578.391	1852.042
578.519	1852.017
578.647	1864.479
578.775	1851.639
578.903	1832.723
579.031	1866.849
579.160	1855.555
579.288	1853.429
579.416	1843.328
579.544	1857.874
579.672	1871.420
579.800	1876.504
579.928	1852.824
580.056	1849.681
580.185	1851.042
580.313	1869.101
580.441	1877.244
580.569	1868.034
580.697	1865.244
580.825	1882.975
580.953	1893.857
581.081	1893.908
581.210	1896.277
581.338	1920.546
581.466	1909.840
581.594	1915.782
581.722	1904.798
581.850	1916.378
581.978	1923.513
582.106	1920.252
582.235	1942.958
582.363	1921.807
582.491	1925.807
582.619	1935.025
582.747	1945.227
582.875	1948.328
583.003	1966.866
583.131	1971.059
583.260	1969.513
583.388	1981.538
583.516	1987.513
583.644	1987.294
583.772	2001.983
583.900	2015.420
584.028	2017.723
584.156	2011.605
584.285	2022.681
584.413	2018.025
584.541	2037.958
584.669	2040.571
584.797	2050.798
584.925	2049.353
585.053	2064.672
585.181	2061.857
585.310	2075.941
585.438	2081.008
585.566	2078.403
585.694	2105.227
585.822	2102.118
585.950	2098.143
586.078	2126.882
586.206	2126.487
586.335	2125.134
586.463	2132.605
586.591	2146.563
586.719	2148.109
586.847	2150.723
586.975	2166.580
587.103	2164.395
587.231	2150.916
587.360	2176.815
587.488	2168.109
587.616	2188.202
587.744	2183.664
587.872	2185.513
588.000	2183.941
588.128	2209.613
588.256	2214.387
588.385	2188.059
588.513	2202.261
588.641	2204.345
588.769	2228.958
588.897	2207.790
589.025	2210.630
589.153	2211.235
589.281	2206.966
589.410	2228.403
589.538	2226.261
589.666	2232.966
589.794	2240.765
589.922	2247.891
590.050	2258.891
590.178	2224.412
590.306	2238.134
590.435	2243.487
590.563	2238.471
590.691	2257.311
590.819	2256.176
590.947	2285.622
591.075	2254.445
591.203	2277.000
591.331	2274.908
591.460	2279.899
591.588	2276.748
591.716	2289.630
591.844	2286.529
591.972	2303.941
592.100	2295.277
592.228	2290.513
592.356	2300.664
592.485	2285.891
592.613	2301.403
592.741	2337.462
592.869	2307.840
592.997	2327.084
593.125	2325.109
593.253	2349.277
593.381	2348.168
593.510	2356.151
593.638	2350.445
593.766	2362.773
593.894	2362.403
594.022	2369.412
594.150	2369.605
594.278	2397.832
594.406	2385.185
594.535	2377.639
594.663	2389.992
594.791	2389.563
594.919	2401.723
595.047	2422.269
595.175	2421.227
595.303	2421.622
595.431	2435.353
595.560	2466.689
595.688	2440.782
595.816	2473.933
595.944	2451.857
596.072	2451.067
596.200	2468.218
596.328	2472.950
596.456	2469.513
596.585	2464.513
596.713	2482.580
596.841	2510.437
596.969	2483.824
597.097	2505.227
597.225	2513.857
597.353	2517.277
597.481	2532.050
597.610	2522.176
597.738	2571.345
597.866	2555.706
597.994	2547.042
598.122	2575.756
598.250	2596.605
598.378	2564.664
598.506	2555.790
598.635	2601.933
598.763	2588.168
598.891	2615.697
599.019	2602.244
599.147	2626.210
599.275	2596.210
599.403	2658.378
599.531	2644.101
599.660	2630.790
599.788	2648.303
599.916	2651.210
600.044	2706.639
600.172	2655.328
600.300	2668.134
600.428	2655.815
600.556	2676.924
600.685	2765.378
600.813	2700.857
600.941	2710.655
601.069	2705.092
601.197	2693.185
601.325	2717.815
601.453	2707.210
601.581	2739.261
601.710	2764.571
601.838	2761.252
601.966	2839.311
602.094	2835.378
602.222	2788.319
602.350	2772.353
602.478	2797.227
602.606	2855.739
602.735	2792.395
602.863	2840.849
602.991	2850.849
603.119	2813.832
603.247	2835.378
603.375	2857.840
603.503	2879.975
603.631	2903.941
603.760	2905.420
603.888	2921.647
604.016	2891.958
604.144	2896.672
604.272	2938.504
604.400	2949.529
604.528	2959.479
604.656	2967.916
604.785	2976.454
604.913	3015.403
605.041	2955.588
605.169	3014.176
605.297	3003.395
605.425	2994.706
605.553	3031.387
605.681	3019.672
605.810	3061.824
605.938	3060.134
606.066	3050.353
606.194	3083.555
606.322	3064.454
606.450	3086.370
606.578	3052.504
606.706	3101.992
606.835	3111.824
606.963	3154.387
607.091	3152.891
607.219	3106.042
607.347	3094.891
607.475	3158.639
607.603	3111.815
607.731	3106.420
607.860	3134.336
607.988	3151.403
608.116	3192.059
608.244	3144.639
608.372	3192.773
608.500	3168.429
608.628	3148.294
608.756	3163.420
608.885	3204.563
609.013	3167.748
609.141	3171.126
609.269	3135.378
609.397	3164.277
609.525	3187.790
609.653	3224.924
609.781	3186.496
609.910	3201.563
610.038	3288.067
610.166	3217.261
610.294	3201.597
610.422	3197.034
610.550	3197.782
610.678	3218.739
610.806	3217.168
610.935	3202.824
611.063	3230.471
611.191	3253.765
611.319	3237.739
611.447	3237.756
611.575	3212.555
611.703	3213.950
611.831	3247.941
611.960	3233.983
612.088	3261.647
612.216	3234.277
612.344	3252.000
612.472	3281.950
612.600	3287.765
612.728	3264.571
612.856	3255.429
612.985	3257.151
613.113	3298.462
613.241	3307.202
613.369	3270.756
613.497	3284.084
613.625	3306.857
613.753	3306.050
613.881	3311.202
614.010	3281.420
614.138	3334.387
614.266	3335.580
614.394	3343.748
614.522	3359.672
614.650	3331.681
614.778	3364.681
614.906	3335.462
615.035	3376.950
615.163	3346.336
615.291	3409.723
615.419	3378.933
615.547	3364.412
615.675	3384.420
615.803	3442.479
615.931	3412.403
616.060	3406.529
616.188	3430.723
616.316	3452.941
616.444	3406.092
616.572	3455.773
616.700	3478.723
616.828	3442.748
616.956	3500.050
617.085	3464.538
617.213	3482.613
617.341	3484.866
617.469	3563.672
617.597	3491.597
617.725	3480.210
617.853	3495.933
617.981	3520.958
618.110	3562.529
618.238	3561.513
618.366	3537.252
618.494	3549.378
618.622	3556.126
618.750	3633.857
618.878	3607.992
619.006	3609.042
619.135	3653.210
619.263	3615.101
619.391	3628.479
619.519	3638.933
619.647	3705.395
619.775	3677.244
619.903	3692.504
620.031	3655.143
620.160	3673.824
620.288	3718.681
620.416	3716.210
620.544	3713.277
620.672	3737.529
620.800	3768.210
620.928	3762.966
621.056	3829.723
621.185	3768.118
621.313	3762.563
621.441	3790.059
621.569	3814.798
621.697	3826.017
621.825	3847.504
621.953	3845.025
622.081	3876.664
622.210	3854.168
622.338	3885.866
622.466	3898.143
622.594	3906.050
622.722	3868.891
622.850	3934.613
622.978	3967.462
623.106	3971.403
623.235	3947.882
623.363	3973.479
623.491	3946.151
623.619	4002.050
623.747	3966.067
623.875	3999.513
624.003	3974.773
624.131	4022.042
624.260	4033.824
624.388	3994.933
624.516	4035.370
624.644	4023.185
624.772	4022.924
624.900	4009.176
625.028	4056.311
625.156	4030.496
625.285	4099.849
625.413	4085.328
625.541	4051.555
625.669	4086.563
625.797	4088.992
625.925	4090.613
626.053	4099.202
626.181	4098.034
626.310	4174.269
626.438	4080.681
626.566	4128.403
626.694	4111.437
626.822	4110.958
626.950	4166.244
627.078	4114.765
627.206	4141.689
627.335	4139.706
627.463	4144.992
627.591	4175.479
627.719	4224.361
627.847	4169.050
627.975	4185.008
628.103	4199.622
628.231	4206.202
628.360	4190.328
628.488	4206.689
628.616	4194.017
628.744	4207.588
628.872	4227.739
629.000	4210.471
629.128	4218.681
629.256	4198.731
629.385	4213.336
629.513	4196.807
629.641	4241.639
629.769	4288.824
629.897	4256.378
630.025	4226.588
630.153	4282.866
630.281	4262.303
630.410	4257.824
630.538	4257.345
630.666	4277.975
630.794	4268.017
630.922	4312.546
631.050	4274.874
631.178	4281.328
631.306	4281.891
631.435	4274.286
631.563	4301.067
631.691	4337.605
631.819	4392.076
631.947	4279.664
632.075	4275.655
632.203	4346.134
632.331	4323.487
632.460	4317.857
632.588	4314.345
632.716	4325.529
632.844	4384.689
632.972	4295.916
633.100	4312.387
633.228	4339.269
633.356	4345.092
633.485	4334.395
633.613	4354.958
633.741	4356.958
633.869	4340.975
633.997	4352.319
634.125	4415.546
634.253	4370.084
634.381	4393.328
634.510	4394.471
634.638	4388.950
634.766	4436.630
634.894	4396.092
635.022	4380.622
635.150	4368.857
635.278	4395.361
635.406	4380.706
635.535	4374.546
635.663	4418.983
635.791	4338.395
635.919	4366.403
636.047	4387.286
636.175	4382.059
636.303	4363.706
636.431	4402.622
636.560	4400.815
636.688	4374.992
636.816	4399.303
636.944	4397.899
637.072	4394.790
637.200	4393.588
637.328	4399.765
637.456	4372.176
637.585	4385.361
637.713	4400.597
637.841	4399.899
637.969	4402.908
638.097	4406.924
638.225	4413.874
638.353	4409.387
638.481	4423.202
638.610	4412.017
638.738	4426.319
638.866	4401.756
638.994	4437.874
639.122	4402.471
639.250	4416.924
639.378	4465.647
639.506	4426.050
639.635	4446.504
639.763	4411.571
639.891	4463.874
640.019	4462.613
640.147	4484.571
640.275	4438.092
640.403	4441.412
640.531	4520.874
640.660	4475.168
640.788	4532.975
640.916	4489.160
641.044	4493.445
641.172	4479.168
641.300	4513.101
641.428	4502.101
641.556	4510.118
641.685	4519.613
641.813	4508.697
641.941	4524.479
642.069	4540.084
642.197	4564.210
642.325	4551.630
642.453	4518.924
642.581	4619.916
642.710	4509.261
642.838	4553.521
642.966	4552.496
643.094	4566.672
643.222	4558.882
643.350	4570.008
643.478	4600.933
643.606	4583.109
643.735	4536.933
643.863	4592.261
643.991	4593.151
644.119	4585.294
644.247	4610.420
644.375	4580.319
644.503	4604.613
644.631	4628.311
644.760	4630.681
644.888	4619.933
645.016	4645.311
645.144	4622.361
645.272	4587.807
645.400	4631.546
645.528	4635.008
645.656	4622.983
645.785	4637.025
645.913	4691.798
646.041	4635.193
646.169	4703.782
646.297	4617.420
646.425	4659.916
646.553	4620.395
646.681	4621.739
646.810	4639.580
646.938	4610.420
647.066	4596.034
647.194	4688.874
647.322	4611.866
647.450	4604.647
647.578	4620.782
647.706	4580.084
647.835	4601.361
647.963	4631.454
648.091	4572.605
648.219	4634.983
648.347	4661.387
648.475	4585.748
648.603	4586.866
648.731	4561.891
648.860	4580.790
648.988	4573.034
649.116	4554.462
649.244	4553.000
649.372	4571.891
649.500	4556.765
649.628	4580.546
649.756	4562.647
649.885	4531.992
650.013	4500.143
650.141	4497.319
650.269	4483.269
650.397	4472.689
650.525	4451.597
650.653	4522.739
650.781	4488.672
650.910	4468.782
651.038	4420.950
651.166	4424.655
651.294	4426.689
651.422	4405.034
651.550	4373.824
651.678	4414.277
651.806	4396.513
651.935	4383.714
652.063	4378.992
652.191	4352.521
652.319	4342.210
652.447	4356.630
652.575	4337.613
652.703	4354.496
652.831	4348.479
652.960	4312.798
653.088	4333.017
653.216	4319.261
653.344	4321.832
653.472	4316.950
653.600	4286.689
653.728	4278.840
653.856	4284.429
653.985	4270.286
654.113	4254.487
654.241	4255.748
654.369	4241.664
654.497	4279.294
654.625	4251.647
654.753	4219.294
654.881	4256.933
655.010	4294.193
655.138	4207.933
655.266	4223.605
655.394	4219.857
655.522	4245.244
655.650	4187.513
655.778	4258.756
655.906	4188.210
656.035	4152.563
656.163	4160.286
656.291	4158.017
656.419	4165.134
656.547	4135.857
656.675	4149.790
656.803	4167.042
656.931	4143.521
657.060	4137.975
657.188	4136.824
657.316	4141.487
657.444	4122.471
657.572	4112.924
657.700	4119.655
657.828	4108.681
657.956	4148.975
658.085	4172.429
658.213	4151.748
658.341	4119.487
658.469	4135.815
658.597	4180.429
658.725	4126.496
658.853	4091.462
658.981	4086.824
659.110	4118.555
659.238	4110.849
659.366	4104.202
659.494	4071.529
659.622	4052.504
659.750	4037.067
659.878	4040.059
660.006	4068.782
660.135	4045.042
660.263	4043.050
660.391	4124.445
660.519	4098.782
660.647	4016.546
660.775	4015.160
660.903	3983.529
661.031	3985.092
661.160	4025.748
661.288	4011.403
661.416	4003.933
661.544	3983.538
661.672	3972.294
661.800	3974.328
661.928	3967.471
662.056	4029.437
662.185	3917.176
662.313	3956.706
662.441	4005.706
662.569	3934.723
662.697	3928.639
662.825	3915.756
662.953	3894.025
663.081	3899.597
663.210	3895.345
663.338	3877.782
663.466	3894.361
663.594	3889.420
663.722	3843.815
663.850	3865.992
663.978	3846.059
664.106	3916.933
664.235	3841.101
664.363	3896.176
664.491	3852.202
664.619	3825.874
664.747	3838.319
664.875	3830.992
665.003	3836.378
665.131	3788.630
665.260	3853.647
665.388	3786.345
665.516	3777.218
665.644	3792.849
665.772	3781.151
665.900	3808.773
666.028	3730.597
666.156	3748.143
666.285	3744.647
666.413	3764.118
666.541	3750.874
666.669	3725.891
666.797	3703.336
666.925	3719.639
667.053	3774.084
667.181	3679.429
667.310	3719.950
667.438	3697.664
667.566	3705.563
667.694	3683.034
667.822	3671.958
667.950	3651.235
668.078	3652.563
668.206	3663.109
668.335	3610.748
668.463	3642.639
668.591	3635.361
668.719	3638.227
668.847	3616.319
668.975	3612.277
669.103	3586.739
669.231	3633.261
669.360	3561.471
669.488	3589.538
669.616	3565.050
669.744	3608.924
669.872	3543.916
670.000	3556.975
670.128	3525.034
670.256	3524.966
670.385	3554.118
670.513	3496.160
670.641	3530.277
670.769	3547.966
670.897	3493.966
671.025	3508.202
671.153	3492.218
671.281	3493.160
671.410	3526.269
671.538	3481.714
671.666	3483.588
671.794	3475.471
671.922	3455.084
672.050	3500.639
672.178	3406.613
672.306	3423.193
672.435	3443.689
672.563	3419.849
672.691	3451.664
672.819	3396.496
672.947	3376.471
673.075	3372.345
673.203	3362.235
673.331	3340.958
673.460	3352.454
673.588	3347.832
673.716	3350.882
673.844	3328.958
673.972	3323.815
674.100	3285.437
674.228	3292.303
674.356	3269.328
674.485	3271.706
674.613	3283.849
674.741	3279.101
674.869	3218.706
674.997	3269.429
675.125	3246.235
675.253	3196.050
675.381	3233.706
675.510	3170.874
675.638	3211.429
675.766	3158.630
675.894	3193.294
676.022	3152.588
676.150	3150.975
676.278	3163.445
676.406	3141.261
676.535	3164.748
676.663	3137.983
676.791	3116.168
676.919	3092.420
677.047	3066.975
677.175	3063.613
677.303	3137.782
677.431	3021.109
677.560	3030.445
677.688	3018.992
677.816	3054.731
677.944	3025.000
678.072	2972.908
678.200	2965.118
678.328	2980.361
678.456	2974.126
678.585	2942.933
678.713	2941.714
678.841	2924.387
678.969	2927.697
679.097	2922.269
679.225	2914.613
679.353	2889.361
679.481	2879.824
679.610	2878.294
679.738	2838.790
679.866	2870.185
679.994	2847.420
680.122	2854.647
680.250	2809.286
680.378	2850.958
680.506	2792.471
680.635	2800.462
680.763	2848.891
680.891	2805.261
681.019	2757.655
681.147	2790.210
681.275	2752.050
681.403	2715.471
681.531	2723.168
681.660	2745.034
681.788	2785.487
681.916	2682.756
682.044	2690.714
682.172	2701.059
682.300	2665.765
682.428	2648.908
682.556	2672.202
682.685	2683.479
682.813	2675.504
682.941	2635.067
683.069	2621.924
683.197	2641.832
683.325	2608.092
683.453	2618.798
683.581	2620.370
683.710	2581.975
683.838	2582.874
683.966	2605.630
684.094	2590.252
684.222	2583.202
684.350	2554.261
684.478	2536.160
684.606	2565.303
684.735	2544.479
684.863	2525.235
684.991	2549.034
685.119	2545.487
685.247	2545.151
685.375	2493.286
685.503	2537.496
685.631	2560.126
685.760	2493.336
685.888	2470.840
686.016	2490.655
686.144	2484.185
686.272	2463.445
686.400	2461.143
686.528	2433.252
686.656	2431.017
686.785	2427.571
686.913	2433.160
687.041	2407.571
687.169	2420.748
687.297	2444.597
687.425	2416.975
687.553	2411.151
687.681	2388.714
687.810	2404.311
687.938	2367.294
688.066	2384.126
688.194	2391.672
688.322	2377.076
688.450	2362.042
688.578	2371.109
688.706	2368.613
688.835	2365.261
688.963	2357.739
689.091	2354.504
689.219	2338.370
689.347	2313.378
689.475	2331.840
689.603	2309.202
689.731	2332.630
689.860	2314.126
689.988	2306.605
690.116	2303.504
690.244	2309.395
690.372	2289.992
690.500	2286.908
690.628	2284.622
690.756	2281.748
690.885	2276.798
691.013	2264.429
691.141	2269.647
691.269	2255.798
691.397	2260.782
691.525	2246.168
691.653	2248.101
691.781	2253.992
691.910	2232.202
692.038	2216.118
692.166	2212.303
692.294	2219.832
692.422	2196.008
692.550	2225.109
692.678	2193.521
692.806	2178.958
692.935	2180.630
693.063	2166.185
693.191	2175.588
693.319	2169.042
693.447	2153.958
693.575	2144.790
693.703	2147.756
693.831	2149.521
693.960	2137.059
694.088	2131.613
694.216	2117.866
694.344	2119.824
694.472	2131.303
694.600	2097.513
694.728	2095.370
694.856	2087.445
694.985	2094.958
695.113	2083.681
695.241	2063.008
695.369	2074.706
695.497	2070.050
695.625	2071.235
695.753	2052.496
695.881	2032.042
696.010	2029.714
696.138	2041.378
696.266	2024.748
696.394	2012.807
696.522	2004.445
696.650	1974.748
696.778	1986.361
696.906	1983.521
697.035	1969.168
697.163	1959.101
697.291	1958.412
697.419	1953.025
697.547	1944.420
697.675	1947.429
697.803	1926.748
697.931	1926.580
698.060	1927.992
698.188	1911.639
698.316	1917.992
698.444	1895.151
698.572	1876.151
698.700	1896.277
698.828	1878.748
698.956	1860.277
699.085	1852.941
699.213	1847.261
699.341	1843.672
699.469	1840.126
699.597	1850.118
699.725	1847.395
699.853	1811.193
699.981	1824.176
700.110	1808.303
700.238	1811.571
700.366	1797.613
700.494	1782.143
700.622	1793.412
700.750	1761.597
700.878	1785.571
701.006	1750.647
701.135	1760.697
701.263	1764.647
701.391	1739.597
701.519	1748.714
701.647	1746.420
701.775	1741.202
701.903	1725.630
702.031	1721.882
702.160	1728.958
702.288	1712.639
702.416	1710.882
702.544	1703.227
702.672	1695.555
702.800	1687.824
702.928	1701.689
703.056	1685.882
703.185	1678.908
703.313	1679.723
703.441	1657.496
703.569	1651.210
703.697	1661.059
703.825	1661.664
703.953	1657.513
704.081	1644.008
704.210	1628.244
704.338	1645.101
704.466	1616.538
704.594	1616.017
704.722	1618.798
704.850	1614.076
704.978	1601.487
705.106	1592.983
705.235	1589.168
705.363	1583.647
705.491	1587.908
705.619	1567.412
705.747	1566.832
705.875	1583.176
706.003	1562.580
706.131	1560.042
706.260	1546.244
706.388	1542.739
706.516	1537.244
706.644	1539.235
706.772	1529.445
706.900	1504.269
707.028	1507.723
707.156	1514.101
707.285	1506.185
707.413	1493.487
707.541	1484.462
707.669	1475.941
707.797	1492.782
707.925	1477.218
708.053	1468.891
708.181	1463.084
708.310	1454.824
708.438	1457.479
708.566	1444.395
708.694	1443.336
708.822	1437.067
708.950	1433.832
709.078	1410.227
709.206	1417.269
709.335	1413.908
709.463	1398.479
709.591	1397.513
709.719	1380.832
709.847	1382.076
709.975	1393.504
710.103	1364.202
710.231	1372.445
710.360	1354.076
710.488	1353.924
710.616	1354.546
710.744	1355.311
710.872	1346.050
711.000	1338.924
711.128	1313.227
711.256	1320.639
711.385	1321.748
711.513	1312.328
711.641	1314.202
711.769	1301.210
711.897	1305.958
712.025	1284.252
712.153	1290.328
712.281	1289.849
712.410	1279.361
712.538	1281.252
712.666	1266.798
712.794	1268.899
712.922	1260.588
713.050	1247.176
713.178	1261.218
713.306	1266.714
713.435	1254.622
713.563	1239.504
713.691	1239.395
713.819	1242.294
713.947	1231.050
714.075	1224.076
714.203	1224.655
714.331	1225.193
714.460	1214.471
714.588	1207.874
714.716	1202.941
714.844	1198.765
714.972	1191.983
715.100	1191.034
715.228	1190.412
715.356	1192.252
715.485	1183.496
715.613	1175.092
715.741	1174.899
715.869	1172.462
715.997	1160.496
716.125	1160.353
716.253	1158.664
716.381	1161.504
716.510	1165.950
716.638	1147.622
716.766	1148.731
716.894	1140.613
717.022	1142.639
717.150	1123.311
717.278	1131.546
717.406	1133.975
717.535	1126.874
717.663	1123.471
717.791	1122.756
717.919	1112.429
718.047	1116.882
718.175	1112.168
718.303	1111.723
718.431	1094.622
718.560	1104.496
718.688	1089.983
718.816	1093.277
718.944	1092.992
719.072	1089.353
719.200	1083.017
719.328	1072.479
719.456	1081.034
719.585	1074.706
719.713	1077.941
719.841	1067.941
719.969	1063.050
720.097	1059.168
720.225	1057.235
720.353	1050.429
720.481	1059.908
720.610	1038.571
720.738	1047.034
720.866	1035.151
720.994	1044.227
721.122	1047.050
721.250	1041.739
721.378	1019.370
721.506	1026.210
721.635	1026.941
721.763	1019.101
721.891	1022.563
722.019	1016.706
722.147	1009.471
722.275	1015.269
722.403	997.899
722.531	993.924
722.660	1004.958
722.788	996.714
722.916	992.244
723.044	989.109
723.172	988.092
723.300	978.235
723.428	982.151
723.556	981.235
723.685	978.042
723.813	978.832
723.941	963.916
724.069	966.303
724.197	957.244
724.325	946.765
724.453	962.059
724.581	946.723
724.710	948.193
724.838	942.479
724.966	924.504
725.094	939.202
725.222	929.193
725.350	923.101
725.478	922.193
725.606	917.126
725.735	907.370
725.863	911.269
725.991	900.798
726.119	905.378
726.247	901.017
726.375	900.479
726.503	901.857
726.631	894.303
726.760	883.933
726.888	889.958
727.016	882.059
727.144	886.000
727.272	876.143
727.400	868.630
727.528	860.101
727.656	861.992
727.785	858.160
727.913	861.202
728.041	852.840
728.169	865.622
728.297	854.697
728.425	845.664
728.553	841.571
728.681	835.496
728.810	832.059
728.938	835.403
729.066	831.924
729.194	832.655
729.322	820.882
729.450	814.832
729.578	825.445
729.706	818.815
729.835	817.168
729.963	815.336
730.091	814.311
730.219	807.412
730.347	806.941
730.475	797.370
730.603	800.076
730.731	800.546
730.860	793.790
730.988	787.244
731.116	790.244
731.244	790.261
731.372	782.244
731.500	781.336
731.628	780.437
731.756	774.597
731.885	780.487
732.013	772.017
732.141	760.782
732.269	761.992
732.397	766.445
732.525	761.697
732.653	763.244
732.781	754.756
732.910	757.933
733.038	751.025
733.166	744.975
733.294	749.765
733.422	751.303
733.550	751.471
733.678	739.269
733.806	746.050
733.935	743.958
734.063	732.597
734.191	739.529
734.319	731.563
734.447	729.487
734.575	728.118
734.703	723.731
734.831	719.529
734.960	724.319
735.088	720.824
735.216	718.782
735.344	717.664
735.472	712.538
735.600	705.042
735.728	708.723
735.856	707.008
735.985	706.975
736.113	709.168
736.241	705.899
736.369	705.412
736.497	697.504
736.625	694.639
736.753	698.084
736.881	701.118
737.010	693.269
737.138	689.092
737.266	687.269
737.394	683.815
737.522	693.487
737.650	681.529
737.778	681.966
737.906	674.387
738.035	669.630
738.163	679.050
738.291	671.681
738.419	665.319
738.547	674.059
738.675	677.008
738.803	667.269
738.931	666.126
739.060	664.513
739.188	657.731
739.316	660.546
739.444	664.840
739.572	650.370
739.700	650.286
739.828	663.067
739.956	650.916
740.085	656.655
740.213	648.748
740.341	647.210
740.469	648.580
740.597	647.210
740.725	644.160
740.853	640.034
740.981	642.714
741.110	640.008
741.238	641.319
741.366	634.227
741.494	643.689
741.622	629.840
741.750	636.252
741.878	637.529
742.006	631.067
742.135	626.555
742.263	626.908
742.391	625.210
742.519	636.908
742.647	616.008
742.775	621.319
742.903	621.513
743.031	622.832
743.160	618.706
743.288	607.445
743.416	613.387
743.544	621.252
743.672	613.748
743.800	623.975
743.928	611.479
744.056	609.101
744.185	612.050
744.313	605.210
744.441	610.059
744.569	612.966
744.697	606.286
744.825	612.655
744.953	605.571
745.081	599.034
745.210	599.672
745.338	606.328
745.466	599.328
745.594	593.723
745.722	602.210
745.850	592.244
745.978	593.445
746.106	592.655
746.235	586.025
746.363	589.622
746.491	584.555
746.619	584.395
746.747	583.815
746.875	579.462
747.003	584.361
747.131	578.412
747.260	573.513
747.388	583.496
747.516	577.639
747.644	574.983
747.772	575.639
747.900	570.462
748.028	573.261
748.156	569.084
748.285	570.353
748.413	567.437
748.541	570.664
748.669	558.597
748.797	565.311
748.925	565.689
749.053	558.647
749.181	554.765
749.310	562.597
749.438	555.916
749.566	554.000
749.694	550.723
749.822	556.832
749.950	548.622
750.078	552.908
750.206	547.269
750.335	547.017
750.463	542.714
750.591	547.403
750.719	548.924
750.847	539.866
750.975	540.571
751.103	534.025
751.231	535.261
751.360	532.756
751.488	534.277
751.616	527.924
751.744	527.496
751.872	526.387
752.000	527.370
752.128	524.840
752.256	521.185
752.385	524.479
752.513	521.336
752.641	519.244
752.769	527.916
752.897	514.882
753.025	516.076
753.153	506.378
753.281	516.857
753.410	510.622
753.538	505.773
753.666	505.134
753.794	501.319
753.922	505.899
754.050	502.454
754.178	501.504
754.306	499.429
754.435	503.361
754.563	500.160
754.691	502.496
754.819	500.504
754.947	497.202
755.075	495.546
755.203	492.882
755.331	488.790
755.460	490.479
755.588	495.773
755.716	486.950
755.844	479.000
755.972	490.950
756.100	489.487
756.228	485.092
756.356	478.748
756.485	487.218
756.613	483.857
756.741	482.311
756.869	483.000
756.997	477.807
757.125	480.857
757.253	474.891
757.381	470.655
757.510	474.706
757.638	469.597
757.766	476.118
757.894	469.101
758.022	470.950
758.150	470.471
758.278	474.126
758.406	463.832
758.535	463.731
758.663	469.891
758.791	459.555
758.919	465.555
759.047	460.731
759.175	464.529
759.303	460.160
759.431	460.798
759.560	458.639
759.688	459.185
759.816	460.571
759.944	457.227
760.072	459.521
760.200	452.975
760.328	460.143
760.456	452.336
760.585	449.471
760.713	449.277
760.841	450.782
760.969	446.571
761.097	445.950
761.225	449.504
761.353	452.874
761.481	447.580
761.610	440.697
761.738	441.546
761.866	442.866
761.994	439.218
762.122	439.983
762.250	439.261
762.378	440.529
762.506	437.840
762.635	437.034
762.763	433.059
762.891	433.765
763.019	440.874
763.147	433.866
763.275	436.235
763.403	426.891
763.531	426.445
763.660	433.647
763.788	429.050
763.916	427.714
764.044	432.588
764.172	426.916
764.300	425.000
764.428	425.756
764.556	422.353
764.685	423.202
764.813	418.739
764.941	419.235
765.069	420.983
765.197	420.370
765.325	416.571
765.453	417.563
765.581	425.143
765.710	419.933
765.838	413.798
765.966	422.235
766.094	415.218
766.222	416.008
766.350	414.269
766.478	413.328
766.606	412.597
766.735	410.681
766.863	406.538
766.991	407.983
767.119	411.319
767.247	405.630
767.375	409.202
767.503	408.731
767.631	412.353
767.760	409.571
767.888	405.017
768.016	408.429
768.144	405.798
768.272	405.025
768.400	401.084
768.528	404.420
768.656	398.983
768.785	401.269
768.913	397.613
769.041	402.714
769.169	397.916
769.297	396.168
769.425	398.067
769.553	398.782
769.681	397.193
769.810	399.664
769.938	398.546
770.066	396.756
770.194	397.849
770.322	393.798
770.450	396.840
770.578	397.202
770.706	390.126
770.835	393.731
770.963	392.958
771.091	392.059
771.219	389.597
771.347	386.353
771.475	391.076
771.603	388.412
771.731	385.202
771.860	386.462
771.988	391.160
772.116	383.941
772.244	380.664
772.372	383.941
772.500	382.319
772.628	383.899
772.756	382.849
772.885	380.681
773.013	382.941
773.141	383.471
773.269	381.840
773.397	383.050
773.525	378.899
773.653	380.168
773.781	376.076
773.910	378.387
774.038	375.916
774.166	380.235
774.294	375.563
774.422	379.681
774.550	378.092
774.678	374.748
774.806	374.076
774.935	372.445
775.063	371.076
775.191	370.622
775.319	370.681
775.447	369.807
775.575	370.319
775.703	366.655
775.831	366.597
775.960	364.261
776.088	362.874
776.216	367.605
776.344	362.697
776.472	365.908
776.600	362.597
776.728	359.261
776.856	362.042
776.985	360.966
777.113	359.622
777.241	358.227
777.369	360.395
777.497	357.328
777.625	360.235
777.753	355.336
777.881	356.798
778.010	349.782
778.138	348.697
778.266	354.933
778.394	355.395
778.522	349.269
778.650	352.899
778.778	351.076
778.906	349.034
779.035	350.857
779.163	349.571
779.291	346.857
779.419	344.723
779.547	345.311
779.675	342.445
779.803	346.706
779.931	341.840
780.060	347.008
780.188	339.655
780.316	336.748
780.444	343.370
780.572	339.529
780.700	341.672
780.828	335.958
780.956	342.496
781.085	335.748
781.213	336.605
781.341	331.697
781.469	338.731
781.597	337.151
781.725	334.008
781.853	330.050
781.981	330.370
782.110	331.563
782.238	326.857
782.366	327.319
782.494	322.798
782.622	329.185
782.750	326.580
782.878	324.025
783.006	322.597
783.135	324.714
783.263	321.471
783.391	324.588
783.519	319.622
783.647	320.790
783.775	322.555
783.903	319.546
784.031	314.555
784.160	317.891
784.288	318.975
784.416	315.429
784.544	315.151
784.672	311.866
784.800	312.218
784.928	309.605
785.056	310.849
785.185	309.832
785.313	306.529
785.441	309.664
785.569	308.168
785.697	308.807
785.825	304.319
785.953	302.765
786.081	306.916
786.210	303.227
786.338	303.437
786.466	298.277
786.594	302.244
786.722	298.773
786.850	303.151
786.978	298.412
787.106	297.328
787.235	296.571
787.363	300.252
787.491	291.849
787.619	292.277
787.747	294.471
787.875	292.235
788.003	287.916
788.131	286.807
788.260	290.042
788.388	289.008
788.516	285.933
788.644	288.723
788.772	287.067
788.900	286.134
789.028	288.008
789.156	282.639
789.285	281.630
789.413	284.487
789.541	281.714
789.669	280.412
789.797	276.689
789.925	278.563
790.053	280.437
790.181	277.672
790.310	277.605
790.438	274.370
790.566	270.118
790.694	271.462
790.822	270.958
790.950	273.092
791.078	270.504
791.206	270.319
791.335	269.118
791.463	267.748
791.591	264.571
791.719	269.168
791.847	266.210
791.975	265.445
792.103	263.403
792.231	267.261
792.360	264.294
792.488	257.941
792.616	265.092
792.744	259.303
792.872	260.269
793.000	258.706
793.128	257.294
793.256	259.597
793.385	258.765
793.513	254.370
793.641	257.101
793.769	253.395
793.897	253.908
794.025	252.706
794.153	251.613
794.281	253.143
794.410	253.168
794.538	249.849
794.666	253.681
794.794	247.613
794.922	248.790
795.050	250.403
795.178	249.513
795.306	244.160
795.435	243.748
795.563	244.681
795.691	243.412
795.819	243.664
795.947	242.655
796.075	243.235
796.203	244.916
796.331	241.025
796.460	239.092
796.588	240.471
796.716	241.134
796.844	238.739
796.972	237.983
797.100	232.857
797.228	238.328
797.356	237.723
797.485	237.017
797.613	234.361
797.741	232.723
797.869	234.966
797.997	233.681
798.125	235.227
798.253	232.513
798.381	233.807
798.510	233.706
798.638	230.689
798.766	229.345
798.894	230.210
799.022	226.437
799.150	229.563
799.278	225.286
799.406	227.504
799.535	226.916
799.663	223.580
799.791	225.092
799.919	224.840
800.047	225.731
800.175	220.420
800.303	220.815
800.431	223.084
800.560	223.353
800.688	222.017
800.816	220.218
800.944	216.437
801.072	220.924
801.200	219.723
801.328	216.748
801.456	218.160
801.585	218.286
801.713	216.975
801.841	216.983
801.969	216.134
802.097	214.294
802.225	213.076
802.353	215.319
802.481	212.832
802.610	210.639
802.738	209.109
802.866	212.681
802.994	211.538
803.122	211.025
803.250	210.462
803.378	209.891
803.506	206.966
803.635	207.588
803.763	206.244
803.891	208.235
804.019	209.269
804.147	205.101
804.275	206.824
804.403	205.664
804.531	204.067
804.660	201.832
804.788	199.992
804.916	202.613
805.044	207.445
805.172	201.731
805.300	199.655
805.428	200.050
805.556	200.109
805.685	201.706
805.813	199.202
805.941	198.294
806.069	200.294
806.197	197.471
806.325	199.025
806.453	196.824
806.581	195.218
806.710	192.756
806.838	193.546
806.966	195.101
807.094	193.916
807.222	193.908
807.350	194.613
807.478	193.303
807.606	192.655
807.735	191.235
807.863	193.303
807.991	190.924
808.119	191.454
808.247	189.403
808.375	190.849
808.503	192.185
808.631	188.134
808.760	188.286
808.888	184.866
809.016	185.361
809.144	189.294
809.272	188.546
809.400	188.185
809.528	183.697
809.656	185.084
809.785	185.714
809.913	185.471
810.041	183.924
810.169	184.202
810.297	182.613
810.425	181.563
810.553	181.134
810.681	182.134
810.810	182.437
810.938	179.840
811.066	176.916
811.194	180.790
811.322	179.891
811.450	179.924
811.578	178.891
811.706	178.185
811.835	176.084
811.963	176.950
812.091	175.706
812.219	177.109
812.347	178.328
812.475	174.840
812.603	177.017
812.731	171.882
812.860	174.479
812.988	173.521
813.116	173.336
813.244	174.008
813.372	173.025
813.500	171.445
813.628	173.790
813.756	169.647
813.885	170.588
814.013	169.622
814.141	171.697
814.269	168.235
814.397	170.672
814.525	170.807
814.653	169.261
814.781	165.403
814.910	168.882
815.038	168.445
815.166	167.235
815.294	165.471
815.422	166.277
815.550	167.345
815.678	164.151
815.806	168.941
815.935	165.622
816.063	162.210
816.191	162.756
816.319	165.277
816.447	163.731
816.575	165.311
816.703	162.647
816.831	162.529
816.960	164.832
817.088	161.353
817.216	160.487
817.344	161.176
817.472	161.185
817.600	158.815
817.728	162.202
817.856	160.992
817.985	158.849
818.113	158.790
818.241	158.017
818.369	158.235
818.497	156.378
818.625	156.647
818.753	157.218
818.881	157.235
819.010	157.025
819.138	156.101
819.266	156.101
819.394	154.832
819.522	154.790
819.650	154.798
819.778	154.840
819.906	154.319
820.035	153.370
820.163	153.975
820.291	153.034
820.419	152.395
820.547	152.815
820.675	149.328
820.803	154.067
820.931	151.639
821.060	150.874
821.188	151.773
821.316	148.361
821.444	150.202
821.572	150.697
821.700	149.311
821.828	151.235
821.956	151.134
822.085	150.025
822.213	148.756
822.341	149.126
822.469	148.916
822.597	148.756
822.725	146.605
822.853	148.160
822.981	144.756
823.110	149.891
823.238	145.345
823.366	147.966
823.494	146.126
823.622	146.277
823.750	145.462
823.878	145.202
824.006	146.538
824.135	144.882
824.263	146.403
824.391	144.672
824.519	143.672
824.647	145.664
824.775	143.420
824.903	146.471
825.031	143.025
825.160	144.647
825.288	142.101
825.416	142.933
825.544	141.941
825.672	143.084
825.800	142.630
825.928	141.630
826.056	140.765
826.185	141.210
826.313	139.815
826.441	139.513
826.569	139.866
826.697	139.445
826.825	139.412
826.953	138.622
827.081	138.773
827.210	139.655
827.338	140.714
827.466	138.630
827.594	140.244
827.722	139.891
827.850	137.118
827.978	135.361
828.106	136.765
828.235	137.109
828.363	136.866
828.491	136.429
828.619	137.218
828.747	137.067
828.875	138.655
829.003	136.899
829.131	136.353
829.260	136.546
829.388	133.597
829.516	135.689
829.644	134.983
829.772	135.563
829.900	133.706
830.028	134.874
830.156	133.303
830.285	131.361
830.413	135.504
830.541	134.050
830.669	132.798
830.797	131.143
830.925	134.311
831.053	132.471
831.181	133.034
831.310	133.849
831.438	131.420
831.566	131.370
831.694	131.311
831.822	130.008
831.950	131.126
832.078	131.958
832.206	130.723
832.335	130.756
832.463	129.992
832.591	131.504
832.719	130.378
832.847	130.723
832.975	128.395
833.103	129.950
833.231	129.849
833.360	130.151
833.488	129.773
833.616	135.630
833.744	132.370
833.872	130.563
834.000	128.958
834.128	127.521
834.256	128.588
834.385	126.908
834.513	128.739
834.641	126.303
834.769	127.311
834.897	127.849
835.025	126.084
835.153	125.370
835.281	126.252
835.410	125.975
835.538	126.134
835.666	126.092
835.794	127.622
835.922	126.647
836.050	125.017
836.178	123.832
836.306	126.025
836.435	126.311
836.563	124.546
836.691	123.891
836.819	126.210
836.947	123.706
837.075	124.639
837.203	123.824
837.331	121.941
837.460	124.025
837.588	124.782
837.716	122.866
837.844	123.345
837.972	123.950
838.100	122.479
838.228	123.580
838.356	124.513
838.485	119.950
838.613	122.160
838.741	122.303
838.869	122.857
838.997	122.370
839.125	118.950
839.253	120.924
839.381	122.151
839.510	120.689
839.638	121.294
839.766	119.882
839.894	119.538
840.022	123.555
840.150	121.303
840.278	120.798
840.406	121.479
840.535	122.118
840.663	119.017
840.791	120.076
840.919	119.504
841.047	118.832
841.175	118.529
841.303	119.160
841.431	118.966
841.560	118.504
841.688	119.261
841.816	119.933
841.944	119.176
842.072	116.924
842.200	117.479
842.328	120.252
842.456	117.487
842.585	118.143
842.713	118.723
842.841	117.866
842.969	117.815
843.097	119.076
843.225	117.790
843.353	118.832
843.481	116.353
843.610	118.857
843.738	117.773
843.866	117.538
