70-100-0_at_679.99nm_cut_at_1283.50Y_01.dat
24.01.2024
11:30:23
cut middle at Y: 1283.50
top cursor: 1343 down cursor: 1224 mean of: 119 lines , 2560 datapoints
wavelength(nm)	intensity[arb. units]
515.994	577.765
516.122	549.269
516.250	541.286
516.378	536.899
516.506	537.420
516.635	542.538
516.763	550.034
516.891	548.756
517.019	551.790
517.147	547.160
517.275	547.983
517.403	546.017
517.531	553.387
517.660	551.765
517.788	550.630
517.916	552.218
518.044	549.445
518.172	555.160
518.300	553.496
518.428	553.454
518.556	548.765
518.685	555.143
518.813	561.387
518.941	557.555
519.069	557.899
519.197	554.672
519.325	560.756
519.453	563.218
519.581	568.134
519.710	564.218
519.838	565.395
519.966	561.538
520.094	571.277
520.222	570.445
520.350	574.261
520.478	579.403
520.606	574.983
520.735	572.773
520.863	575.176
520.991	584.798
521.119	575.899
521.247	580.975
521.375	587.395
521.503	593.462
521.631	589.739
521.760	587.857
521.888	588.143
522.016	593.412
522.144	595.143
522.272	597.622
522.400	599.908
522.528	600.361
522.656	606.689
522.785	608.924
522.913	607.092
523.041	598.319
523.169	597.622
523.297	606.378
523.425	606.277
523.553	605.462
523.681	608.807
523.810	610.639
523.938	617.891
524.066	610.319
524.194	614.395
524.322	612.857
524.450	605.471
524.578	610.034
524.706	619.151
524.835	609.563
524.963	618.588
525.091	608.328
525.219	606.899
525.347	617.756
525.475	619.151
525.603	607.395
525.731	616.185
525.860	616.328
525.988	609.689
526.116	612.311
526.244	616.681
526.372	612.966
526.500	616.748
526.628	622.689
526.756	613.185
526.885	621.101
527.013	614.050
527.141	619.504
527.269	617.605
527.397	623.294
527.525	619.681
527.653	620.866
527.781	618.723
527.910	629.202
528.038	626.580
528.166	625.185
528.294	620.252
528.422	619.185
528.550	626.134
528.678	631.008
528.806	627.353
528.935	629.622
529.063	630.908
529.191	629.597
529.319	636.588
529.447	635.765
529.575	631.345
529.703	637.689
529.831	638.773
529.960	632.538
530.088	636.328
530.216	636.639
530.344	641.983
530.472	639.538
530.600	640.034
530.728	638.176
530.856	637.454
530.985	640.580
531.113	639.218
531.241	644.622
531.369	644.765
531.497	642.286
531.625	644.235
531.753	640.412
531.881	646.555
532.010	641.748
532.138	641.235
532.266	637.303
532.394	632.613
532.522	632.000
532.650	642.824
532.778	641.218
532.906	640.739
533.035	646.546
533.163	642.664
533.291	633.202
533.419	635.782
533.547	639.252
533.675	637.050
533.803	637.437
533.931	636.328
534.060	636.739
534.188	644.269
534.316	645.437
534.444	642.193
534.572	638.151
534.700	644.571
534.828	647.874
534.956	646.580
535.085	646.706
535.213	652.529
535.341	647.067
535.469	647.706
535.597	653.160
535.725	651.622
535.853	654.639
535.981	651.782
536.110	657.143
536.238	664.101
536.366	665.605
536.494	659.983
536.622	665.471
536.750	664.941
536.878	672.950
537.006	672.101
537.135	675.202
537.263	673.092
537.391	676.361
537.519	678.555
537.647	674.454
537.775	672.185
537.903	678.252
538.031	689.151
538.160	678.092
538.288	684.118
538.416	689.563
538.544	684.824
538.672	686.849
538.800	692.429
538.928	687.580
539.056	697.261
539.185	690.706
539.313	682.101
539.441	701.092
539.569	688.160
539.697	694.454
539.825	696.462
539.953	698.765
540.081	689.983
540.210	693.353
540.338	692.387
540.466	699.059
540.594	695.773
540.722	690.387
540.850	694.765
540.978	698.025
541.106	699.134
541.235	697.731
541.363	699.513
541.491	689.454
541.619	697.664
541.747	696.882
541.875	695.874
542.003	697.866
542.131	704.454
542.260	704.546
542.388	698.731
542.516	699.319
542.644	706.664
542.772	699.361
542.900	702.084
543.028	705.311
543.156	700.849
543.285	702.185
543.413	705.748
543.541	704.622
543.669	709.000
543.797	708.513
543.925	711.084
544.053	703.832
544.181	699.185
544.310	707.815
544.438	699.269
544.566	706.689
544.694	705.697
544.822	709.639
544.950	711.034
545.078	709.202
545.206	704.210
545.335	704.681
545.463	700.487
545.591	704.143
545.719	703.689
545.847	706.950
545.975	707.261
546.103	701.798
546.231	705.420
546.360	704.782
546.488	704.824
546.616	707.437
546.744	701.529
546.872	704.689
547.000	708.445
547.128	703.353
547.256	700.824
547.385	706.076
547.513	701.345
547.641	705.454
547.769	704.832
547.897	705.017
548.025	706.151
548.153	703.933
548.281	701.479
548.410	704.580
548.538	707.395
548.666	707.479
548.794	703.639
548.922	700.958
549.050	711.210
549.178	704.765
549.306	708.849
549.435	712.244
549.563	708.084
549.691	701.521
549.819	713.370
549.947	709.235
550.075	698.328
550.203	705.941
550.331	703.261
550.460	711.546
550.588	711.563
550.716	717.664
550.844	703.252
550.972	708.496
551.100	711.042
551.228	710.387
551.356	707.168
551.485	711.891
551.613	703.622
551.741	706.807
551.869	699.185
551.997	695.748
552.125	701.874
552.253	700.882
552.381	697.731
552.510	703.277
552.638	692.546
552.766	705.034
552.894	693.697
553.022	699.840
553.150	692.311
553.278	701.866
553.406	696.504
553.535	693.941
553.663	694.294
553.791	685.874
553.919	688.748
554.047	699.529
554.175	681.412
554.303	692.765
554.431	685.437
554.560	694.336
554.688	694.513
554.816	690.277
554.944	697.815
555.072	688.067
555.200	688.076
555.328	690.370
555.456	690.218
555.585	690.345
555.713	686.118
555.841	692.471
555.969	682.412
556.097	690.286
556.225	689.664
556.353	694.050
556.481	691.916
556.610	696.210
556.738	698.437
556.866	693.941
556.994	695.210
557.122	696.336
557.250	694.244
557.378	694.403
557.506	695.605
557.635	693.933
557.763	691.126
557.891	704.445
558.019	697.034
558.147	698.193
558.275	689.664
558.403	696.866
558.531	695.773
558.660	688.134
558.788	690.471
558.916	702.387
559.044	687.017
559.172	697.059
559.300	704.689
559.428	699.613
559.556	696.118
559.685	695.782
559.813	690.361
559.941	695.269
560.069	697.487
560.197	694.361
560.325	700.815
560.453	687.790
560.581	702.941
560.710	690.025
560.838	688.538
560.966	688.454
561.094	701.370
561.222	691.403
561.350	689.403
561.478	688.773
561.606	685.849
561.735	680.529
561.863	689.202
561.991	689.319
562.119	686.765
562.247	684.353
562.375	686.546
562.503	683.261
562.631	684.328
562.760	687.597
562.888	683.681
563.016	683.866
563.144	686.563
563.272	685.647
563.400	675.193
563.528	678.882
563.656	680.815
563.785	676.782
563.913	682.050
564.041	676.269
564.169	679.950
564.297	684.756
564.425	672.361
564.553	690.471
564.681	683.824
564.810	680.370
564.938	688.739
565.066	687.143
565.194	692.403
565.322	686.000
565.450	691.143
565.578	694.966
565.706	682.101
565.835	697.437
565.963	687.605
566.091	689.916
566.219	690.345
566.347	691.252
566.475	688.529
566.603	691.000
566.731	693.941
566.860	694.345
566.988	699.294
567.116	701.050
567.244	697.580
567.372	703.210
567.500	701.857
567.628	700.034
567.756	699.958
567.885	713.134
568.013	707.790
568.141	713.462
568.269	710.067
568.397	705.639
568.525	709.050
568.653	715.513
568.781	715.992
568.910	716.689
569.038	714.025
569.166	712.345
569.294	713.462
569.422	711.882
569.550	709.546
569.678	719.605
569.806	717.378
569.935	715.672
570.063	723.269
570.191	720.084
570.319	719.479
570.447	719.067
570.575	720.639
570.703	722.739
570.831	723.983
570.960	717.286
571.088	722.244
571.216	727.966
571.344	724.966
571.472	720.664
571.600	727.370
571.728	723.067
571.856	724.218
571.985	725.244
572.113	726.765
572.241	724.639
572.369	738.370
572.497	722.160
572.625	728.496
572.753	729.664
572.881	732.908
573.010	734.832
573.138	742.025
573.266	742.361
573.394	737.538
573.522	736.605
573.650	736.261
573.778	743.311
573.906	731.622
574.035	741.151
574.163	741.084
574.291	728.899
574.419	745.286
574.547	741.765
574.675	742.387
574.803	737.605
574.931	732.882
575.060	747.403
575.188	741.084
575.316	745.017
575.444	739.067
575.572	742.118
575.700	735.563
575.828	746.882
575.956	748.025
576.085	739.908
576.213	745.664
576.341	731.924
576.469	742.193
576.597	731.882
576.725	744.118
576.853	739.345
576.981	735.630
577.110	742.437
577.238	747.084
577.366	739.706
577.494	737.773
577.622	737.345
577.750	738.462
577.878	734.723
578.006	750.034
578.135	741.487
578.263	736.950
578.391	751.908
578.519	737.185
578.647	745.252
578.775	736.403
578.903	738.908
579.031	744.429
579.160	744.521
579.288	745.319
579.416	744.891
579.544	743.731
579.672	753.639
579.800	744.916
579.928	747.924
580.056	743.689
580.185	751.479
580.313	750.101
580.441	750.798
580.569	755.723
580.697	746.050
580.825	751.361
580.953	757.874
581.081	757.261
581.210	761.756
581.338	757.504
581.466	756.160
581.594	760.218
581.722	755.916
581.850	760.328
581.978	766.227
582.106	761.076
582.235	764.731
582.363	767.370
582.491	769.563
582.619	770.403
582.747	773.571
582.875	767.084
583.003	777.303
583.131	781.874
583.260	777.605
583.388	786.622
583.516	783.311
583.644	777.345
583.772	784.076
583.900	789.059
584.028	793.966
584.156	794.756
584.285	797.975
584.413	790.765
584.541	799.025
584.669	800.605
584.797	801.563
584.925	798.017
585.053	811.286
585.181	804.857
585.310	810.496
585.438	800.395
585.566	805.008
585.694	811.034
585.822	821.008
585.950	822.395
586.078	820.773
586.206	822.622
586.335	820.126
586.463	821.345
586.591	829.143
586.719	822.034
586.847	827.504
586.975	824.672
587.103	837.706
587.231	827.529
587.360	832.664
587.488	832.143
587.616	834.345
587.744	846.975
587.872	832.546
588.000	828.882
588.128	843.496
588.256	834.269
588.385	832.328
588.513	835.899
588.641	835.487
588.769	848.218
588.897	847.874
589.025	833.462
589.153	841.639
589.281	833.134
589.410	846.580
589.538	844.815
589.666	849.445
589.794	840.353
589.922	850.580
590.050	850.420
590.178	839.924
590.306	842.697
590.435	842.731
590.563	846.454
590.691	846.723
590.819	845.345
590.947	855.647
591.075	842.857
591.203	841.513
591.331	851.992
591.460	858.521
591.588	845.790
591.716	848.798
591.844	858.286
591.972	856.874
592.100	846.622
592.228	856.790
592.356	858.706
592.485	852.059
592.613	846.714
592.741	858.471
592.869	855.966
592.997	864.252
593.125	858.109
593.253	870.563
593.381	860.983
593.510	865.353
593.638	863.866
593.766	869.630
593.894	868.244
594.022	865.840
594.150	875.202
594.278	883.134
594.406	870.832
594.535	872.832
594.663	883.202
594.791	888.059
594.919	884.185
595.047	887.647
595.175	889.067
595.303	888.025
595.431	888.849
595.560	887.143
595.688	887.235
595.816	892.412
595.944	892.571
596.072	897.521
596.200	892.504
596.328	896.950
596.456	903.387
596.585	901.269
596.713	908.126
596.841	899.597
596.969	897.983
597.097	904.655
597.225	906.916
597.353	910.151
597.481	921.143
597.610	915.311
597.738	915.462
597.866	913.244
597.994	920.563
598.122	919.605
598.250	915.790
598.378	915.000
598.506	917.941
598.635	915.714
598.763	921.244
598.891	925.193
599.019	927.857
599.147	916.311
599.275	921.950
599.403	921.378
599.531	927.756
599.660	933.042
599.788	936.244
599.916	929.353
600.044	930.739
600.172	938.504
600.300	937.235
600.428	940.008
600.556	941.134
600.685	943.076
600.813	943.361
600.941	967.429
601.069	955.311
601.197	957.076
601.325	957.882
601.453	956.076
601.581	953.706
601.710	966.639
601.838	964.454
601.966	959.857
602.094	965.067
602.222	965.731
602.350	961.958
602.478	967.950
602.606	979.697
602.735	975.622
602.863	986.227
602.991	990.992
603.119	980.462
603.247	988.882
603.375	981.613
603.503	984.622
603.631	993.639
603.760	996.773
603.888	993.109
604.016	992.176
604.144	1001.815
604.272	1000.437
604.400	1008.151
604.528	999.244
604.656	1011.908
604.785	1011.908
604.913	1012.176
605.041	1018.429
605.169	1011.580
605.297	1008.731
605.425	1022.529
605.553	1024.126
605.681	1017.395
605.810	1022.471
605.938	1028.664
606.066	1029.118
606.194	1034.992
606.322	1025.555
606.450	1034.134
606.578	1034.202
606.706	1041.807
606.835	1039.664
606.963	1043.151
607.091	1044.412
607.219	1035.395
607.347	1036.538
607.475	1047.303
607.603	1051.597
607.731	1045.950
607.860	1038.706
607.988	1047.067
608.116	1043.664
608.244	1040.933
608.372	1051.655
608.500	1050.597
608.628	1046.042
608.756	1041.983
608.885	1050.193
609.013	1054.059
609.141	1052.756
609.269	1052.605
609.397	1047.597
609.525	1063.084
609.653	1050.916
609.781	1058.941
609.910	1057.983
610.038	1043.218
610.166	1057.471
610.294	1055.706
610.422	1073.622
610.550	1065.151
610.678	1068.538
610.806	1060.126
610.935	1063.160
611.063	1072.269
611.191	1063.773
611.319	1072.866
611.447	1068.807
611.575	1075.126
611.703	1055.798
611.831	1071.109
611.960	1064.017
612.088	1064.689
612.216	1074.479
612.344	1076.336
612.472	1067.370
612.600	1068.714
612.728	1071.000
612.856	1078.345
612.985	1069.017
613.113	1080.378
613.241	1083.286
613.369	1075.840
613.497	1079.160
613.625	1087.555
613.753	1077.924
613.881	1079.269
614.010	1085.160
614.138	1088.479
614.266	1073.345
614.394	1084.941
614.522	1075.059
614.650	1093.328
614.778	1080.597
614.906	1096.269
615.035	1091.471
615.163	1088.521
615.291	1095.689
615.419	1097.303
615.547	1087.487
615.675	1099.639
615.803	1095.672
615.931	1110.840
616.060	1105.185
616.188	1109.202
616.316	1104.420
616.444	1095.555
616.572	1107.235
616.700	1101.714
616.828	1116.555
616.956	1114.891
617.085	1135.143
617.213	1131.748
617.341	1113.437
617.469	1123.958
617.597	1124.882
617.725	1128.387
617.853	1120.773
617.981	1136.067
618.110	1137.538
618.238	1135.866
618.366	1149.000
618.494	1152.017
618.622	1136.613
618.750	1142.387
618.878	1142.580
619.006	1156.126
619.135	1162.395
619.263	1154.697
619.391	1167.824
619.519	1161.697
619.647	1168.639
619.775	1168.118
619.903	1173.521
620.031	1176.555
620.160	1180.840
620.288	1168.773
620.416	1186.849
620.544	1186.891
620.672	1190.706
620.800	1185.487
620.928	1189.462
621.056	1192.672
621.185	1199.681
621.313	1191.597
621.441	1209.832
621.569	1210.227
621.697	1209.613
621.825	1220.235
621.953	1215.303
622.081	1221.202
622.210	1220.017
622.338	1229.496
622.466	1215.210
622.594	1230.076
622.722	1236.958
622.850	1230.899
622.978	1239.975
623.106	1240.361
623.235	1242.924
623.363	1238.613
623.491	1239.420
623.619	1246.269
623.747	1240.454
623.875	1257.739
624.003	1250.218
624.131	1246.445
624.260	1234.042
624.388	1258.387
624.516	1259.866
624.644	1258.378
624.772	1254.950
624.900	1264.992
625.028	1258.790
625.156	1286.773
625.285	1262.084
625.413	1266.613
625.541	1261.218
625.669	1269.445
625.797	1270.420
625.925	1278.227
626.053	1268.647
626.181	1272.622
626.310	1276.168
626.438	1274.076
626.566	1276.345
626.694	1276.597
626.822	1283.849
626.950	1283.286
627.078	1299.378
627.206	1286.361
627.335	1298.479
627.463	1286.748
627.591	1283.807
627.719	1296.966
627.847	1302.908
627.975	1304.244
628.103	1302.168
628.231	1313.655
628.360	1298.168
628.488	1299.202
628.616	1307.277
628.744	1296.798
628.872	1304.521
629.000	1309.571
629.128	1305.555
629.256	1323.076
629.385	1313.941
629.513	1307.042
629.641	1321.403
629.769	1308.714
629.897	1320.235
630.025	1324.756
630.153	1327.681
630.281	1326.017
630.410	1319.756
630.538	1340.429
630.666	1333.622
630.794	1339.857
630.922	1314.782
631.050	1331.218
631.178	1331.479
631.306	1336.412
631.435	1335.126
631.563	1349.218
631.691	1329.580
631.819	1343.261
631.947	1348.286
632.075	1343.882
632.203	1350.286
632.331	1346.756
632.460	1339.975
632.588	1366.261
632.716	1360.042
632.844	1353.697
632.972	1356.017
633.100	1369.387
633.228	1359.193
633.356	1353.790
633.485	1362.185
633.613	1363.647
633.741	1361.916
633.869	1363.706
633.997	1368.059
634.125	1361.067
634.253	1357.731
634.381	1357.361
634.510	1373.756
634.638	1354.555
634.766	1359.731
634.894	1355.462
635.022	1361.101
635.150	1364.370
635.278	1389.605
635.406	1373.529
635.535	1375.807
635.663	1372.353
635.791	1371.798
635.919	1387.109
636.047	1378.160
636.175	1363.218
636.303	1389.034
636.431	1387.076
636.560	1391.504
636.688	1394.513
636.816	1383.445
636.944	1389.681
637.072	1392.378
637.200	1389.445
637.328	1378.756
637.456	1387.218
637.585	1390.496
637.713	1399.941
637.841	1388.134
637.969	1391.731
638.097	1391.294
638.225	1403.412
638.353	1401.597
638.481	1399.025
638.610	1408.202
638.738	1411.857
638.866	1396.824
638.994	1408.647
639.122	1418.832
639.250	1413.429
639.378	1414.395
639.506	1403.765
639.635	1414.765
639.763	1411.479
639.891	1418.345
640.019	1420.580
640.147	1417.983
640.275	1421.210
640.403	1432.832
640.531	1426.336
640.660	1413.966
640.788	1438.655
640.916	1430.210
641.044	1440.622
641.172	1434.454
641.300	1445.706
641.428	1443.294
641.556	1451.361
641.685	1443.555
641.813	1439.084
641.941	1459.008
642.069	1452.731
642.197	1448.471
642.325	1446.916
642.453	1463.588
642.581	1463.244
642.710	1459.353
642.838	1469.487
642.966	1463.555
643.094	1462.504
643.222	1462.471
643.350	1471.479
643.478	1468.714
643.606	1489.933
643.735	1474.639
643.863	1477.395
643.991	1489.176
644.119	1491.311
644.247	1490.092
644.375	1484.437
644.503	1503.244
644.631	1491.992
644.760	1509.689
644.888	1500.336
645.016	1510.521
645.144	1523.277
645.272	1503.857
645.400	1510.218
645.528	1509.176
645.656	1502.050
645.785	1516.034
645.913	1514.403
646.041	1523.445
646.169	1494.034
646.297	1510.134
646.425	1518.193
646.553	1513.017
646.681	1507.244
646.810	1510.580
646.938	1528.672
647.066	1517.479
647.194	1520.857
647.322	1521.387
647.450	1519.025
647.578	1525.353
647.706	1520.664
647.835	1532.832
647.963	1521.378
648.091	1532.613
648.219	1522.361
648.347	1527.067
648.475	1520.647
648.603	1517.168
648.731	1533.672
648.860	1516.832
648.988	1530.689
649.116	1532.958
649.244	1517.529
649.372	1508.067
649.500	1526.050
649.628	1518.244
649.756	1517.084
649.885	1516.277
650.013	1517.630
650.141	1513.294
650.269	1506.353
650.397	1510.504
650.525	1518.647
650.653	1521.126
650.781	1502.639
650.910	1505.176
651.038	1510.143
651.166	1510.529
651.294	1496.210
651.422	1493.538
651.550	1491.487
651.678	1492.395
651.806	1480.563
651.935	1498.353
652.063	1487.538
652.191	1482.277
652.319	1485.546
652.447	1481.017
652.575	1493.992
652.703	1471.866
652.831	1482.832
652.960	1482.076
653.088	1467.739
653.216	1466.824
653.344	1472.756
653.472	1474.815
653.600	1474.513
653.728	1471.924
653.856	1466.655
653.985	1481.277
654.113	1478.639
654.241	1469.874
654.369	1462.899
654.497	1486.151
654.625	1466.874
654.753	1478.202
654.881	1470.739
655.010	1470.924
655.138	1468.353
655.266	1470.462
655.394	1451.185
655.522	1460.084
655.650	1449.580
655.778	1466.723
655.906	1470.479
656.035	1467.185
656.163	1456.597
656.291	1466.630
656.419	1466.387
656.547	1467.714
656.675	1449.269
656.803	1456.244
656.931	1458.067
657.060	1462.151
657.188	1459.630
657.316	1456.151
657.444	1464.076
657.572	1458.193
657.700	1460.580
657.828	1464.176
657.956	1460.941
658.085	1474.933
658.213	1443.311
658.341	1448.857
658.469	1454.042
658.597	1466.496
658.725	1458.000
658.853	1449.924
658.981	1448.143
659.110	1452.101
659.238	1463.454
659.366	1449.899
659.494	1443.126
659.622	1453.689
659.750	1466.076
659.878	1453.160
660.006	1457.664
660.135	1454.756
660.263	1445.748
660.391	1438.000
660.519	1446.462
660.647	1445.134
660.775	1450.857
660.903	1444.336
661.031	1438.807
661.160	1441.303
661.288	1447.983
661.416	1453.689
661.544	1438.840
661.672	1441.319
661.800	1444.193
661.928	1445.084
662.056	1435.050
662.185	1448.723
662.313	1427.597
662.441	1447.815
662.569	1449.597
662.697	1440.084
662.825	1443.387
662.953	1448.076
663.081	1437.252
663.210	1440.345
663.338	1438.613
663.466	1435.403
663.594	1428.378
663.722	1431.118
663.850	1426.185
663.978	1419.790
664.106	1442.353
664.235	1449.353
664.363	1442.571
664.491	1430.269
664.619	1437.815
664.747	1444.008
664.875	1428.664
665.003	1423.756
665.131	1436.462
665.260	1432.025
665.388	1425.017
665.516	1430.218
665.644	1421.521
665.772	1429.756
665.900	1438.193
666.028	1433.975
666.156	1442.160
666.285	1426.076
666.413	1439.235
666.541	1432.185
666.669	1429.966
666.797	1424.286
666.925	1428.563
667.053	1442.664
667.181	1415.202
667.310	1411.387
667.438	1413.101
667.566	1412.739
667.694	1417.765
667.822	1422.412
667.950	1402.462
668.078	1408.126
668.206	1420.252
668.335	1419.697
668.463	1419.218
668.591	1407.504
668.719	1413.672
668.847	1408.555
668.975	1412.403
669.103	1409.395
669.231	1417.597
669.360	1416.807
669.488	1415.244
669.616	1415.034
669.744	1405.160
669.872	1398.630
670.000	1411.697
670.128	1397.017
670.256	1396.689
670.385	1399.420
670.513	1406.714
670.641	1391.076
670.769	1407.395
670.897	1390.202
671.025	1393.496
671.153	1400.958
671.281	1403.084
671.410	1401.118
671.538	1397.143
671.666	1400.664
671.794	1389.924
671.922	1389.496
672.050	1383.958
672.178	1384.748
672.306	1377.992
672.435	1379.092
672.563	1384.832
672.691	1394.000
672.819	1392.092
672.947	1378.689
673.075	1367.218
673.203	1367.782
673.331	1361.664
673.460	1369.992
673.588	1373.067
673.716	1378.513
673.844	1365.479
673.972	1375.126
674.100	1361.664
674.228	1375.050
674.356	1359.479
674.485	1365.454
674.613	1334.521
674.741	1351.832
674.869	1349.059
674.997	1353.857
675.125	1347.252
675.253	1336.437
675.381	1340.311
675.510	1331.361
675.638	1328.050
675.766	1333.891
675.894	1333.454
676.022	1327.042
676.150	1324.933
676.278	1329.538
676.406	1326.361
676.535	1317.244
676.663	1315.857
676.791	1303.748
676.919	1305.689
677.047	1310.866
677.175	1294.622
677.303	1302.832
677.431	1299.739
677.560	1293.412
677.688	1297.118
677.816	1286.286
677.944	1287.429
678.072	1289.983
678.200	1287.874
678.328	1276.420
678.456	1266.983
678.585	1272.773
678.713	1272.092
678.841	1261.454
678.969	1256.798
679.097	1266.613
679.225	1268.639
679.353	1261.798
679.481	1243.739
679.610	1266.160
679.738	1247.437
679.866	1249.345
679.994	1257.076
680.122	1249.412
680.250	1235.042
680.378	1249.445
680.506	1231.588
680.635	1233.857
680.763	1237.622
680.891	1239.412
681.019	1237.395
681.147	1227.857
681.275	1227.311
681.403	1221.899
681.531	1224.252
681.660	1221.975
681.788	1204.899
681.916	1216.193
682.044	1216.555
682.172	1200.538
682.300	1202.345
682.428	1217.630
682.556	1207.042
682.685	1203.941
682.813	1205.983
682.941	1201.025
683.069	1199.269
683.197	1210.479
683.325	1197.933
683.453	1204.689
683.581	1179.034
683.710	1185.807
683.838	1183.773
683.966	1187.445
684.094	1189.193
684.222	1188.689
684.350	1185.109
684.478	1187.202
684.606	1187.261
684.735	1177.950
684.863	1180.160
684.991	1176.370
685.119	1170.160
685.247	1168.151
685.375	1161.076
685.503	1172.714
685.631	1165.084
685.760	1166.429
685.888	1172.664
686.016	1165.025
686.144	1163.950
686.272	1152.580
686.400	1163.723
686.528	1157.118
686.656	1161.319
686.785	1145.092
686.913	1155.454
687.041	1150.235
687.169	1159.798
687.297	1156.908
687.425	1139.790
687.553	1144.227
687.681	1156.420
687.810	1147.042
687.938	1145.496
688.066	1153.714
688.194	1144.924
688.322	1136.706
688.450	1135.605
688.578	1141.261
688.706	1139.000
688.835	1133.345
688.963	1142.277
689.091	1147.345
689.219	1122.092
689.347	1130.588
689.475	1129.412
689.603	1124.983
689.731	1138.101
689.860	1122.571
689.988	1132.168
690.116	1125.840
690.244	1125.193
690.372	1123.303
690.500	1120.496
690.628	1119.807
690.756	1130.882
690.885	1119.395
691.013	1111.513
691.141	1119.218
691.269	1115.378
691.397	1115.134
691.525	1118.025
691.653	1121.151
691.781	1119.672
691.910	1106.840
692.038	1109.034
692.166	1101.723
692.294	1105.555
692.422	1097.487
692.550	1103.891
692.678	1095.975
692.806	1094.697
692.935	1106.328
693.063	1081.891
693.191	1088.950
693.319	1084.454
693.447	1080.824
693.575	1086.193
693.703	1077.874
693.831	1082.202
693.960	1083.647
694.088	1081.924
694.216	1071.151
694.344	1072.798
694.472	1073.639
694.600	1067.513
694.728	1068.664
694.856	1071.479
694.985	1066.756
695.113	1055.412
695.241	1057.832
695.369	1055.210
695.497	1054.025
695.625	1063.050
695.753	1053.420
695.881	1046.975
696.010	1041.168
696.138	1046.639
696.266	1040.639
696.394	1042.840
696.522	1037.630
696.650	1032.227
696.778	1026.420
696.906	1035.487
697.035	1025.756
697.163	1020.622
697.291	1019.639
697.419	1023.571
697.547	1007.983
697.675	1011.622
697.803	1005.378
697.931	1006.429
698.060	1006.975
698.188	1003.866
698.316	1002.294
698.444	991.580
698.572	997.034
698.700	1002.193
698.828	991.437
698.956	983.361
699.085	982.697
699.213	980.739
699.341	976.916
699.469	975.664
699.597	976.756
699.725	970.378
699.853	967.017
699.981	971.815
700.110	968.050
700.238	965.529
700.366	955.185
700.494	952.042
700.622	958.462
700.750	945.765
700.878	949.445
701.006	937.143
701.135	947.723
701.263	939.294
701.391	929.748
701.519	946.731
701.647	938.487
701.775	935.353
701.903	932.538
702.031	929.378
702.160	930.857
702.288	917.345
702.416	927.160
702.544	922.521
702.672	924.252
702.800	909.269
702.928	912.891
703.056	913.000
703.185	913.218
703.313	910.521
703.441	903.882
703.569	904.916
703.697	907.311
703.825	898.353
703.953	909.118
704.081	894.277
704.210	891.866
704.338	891.731
704.466	883.109
704.594	888.647
704.722	886.866
704.850	887.126
704.978	888.353
705.106	879.378
705.235	871.353
705.363	876.017
705.491	862.429
705.619	869.924
705.747	861.227
705.875	867.269
706.003	857.252
706.131	861.412
706.260	848.655
706.388	857.420
706.516	846.000
706.644	845.235
706.772	844.681
706.900	832.160
707.028	839.597
707.156	833.076
707.285	835.370
707.413	825.815
707.541	819.882
707.669	820.866
707.797	822.092
707.925	817.042
708.053	813.588
708.181	810.908
708.310	811.672
708.438	810.303
708.566	800.908
708.694	806.336
708.822	802.059
708.950	803.412
709.078	788.034
709.206	790.639
709.335	790.370
709.463	784.807
709.591	784.521
709.719	779.958
709.847	778.655
709.975	772.563
710.103	770.571
710.231	775.109
710.360	768.210
710.488	760.445
710.616	756.983
710.744	761.941
710.872	758.445
711.000	752.378
711.128	748.395
711.256	745.504
711.385	751.723
711.513	747.294
711.641	739.319
711.769	734.782
711.897	742.504
712.025	735.395
712.153	727.916
712.281	734.487
712.410	722.067
712.538	725.782
712.666	722.042
712.794	714.218
712.922	725.958
713.050	711.815
713.178	718.126
713.306	715.429
713.435	713.504
713.563	710.118
713.691	712.563
713.819	705.387
713.947	699.807
714.075	707.471
714.203	704.546
714.331	696.034
714.460	689.387
714.588	690.513
714.716	699.992
714.844	686.605
714.972	680.050
715.100	687.613
715.228	680.563
715.356	685.622
715.485	683.966
715.613	677.916
715.741	678.546
715.869	680.336
715.997	668.605
716.125	665.193
716.253	670.950
716.381	668.118
716.510	668.580
716.638	658.832
716.766	659.084
716.894	662.311
717.022	653.193
717.150	653.597
717.278	658.807
717.406	650.353
717.535	652.202
717.663	646.252
717.791	643.966
717.919	646.143
718.047	641.630
718.175	642.966
718.303	640.622
718.431	640.092
718.560	641.479
718.688	636.429
718.816	630.815
718.944	626.294
719.072	636.328
719.200	628.790
719.328	624.580
719.456	622.664
719.585	632.546
719.713	620.731
719.841	623.277
719.969	614.790
720.097	613.445
720.225	608.807
720.353	615.395
720.481	617.025
720.610	610.639
720.738	608.588
720.866	607.471
720.994	608.866
721.122	606.202
721.250	600.714
721.378	591.647
721.506	596.563
721.635	599.235
721.763	593.639
721.891	589.756
722.019	588.697
722.147	583.513
722.275	588.067
722.403	588.008
722.531	582.261
722.660	581.739
722.788	583.765
722.916	577.966
723.044	576.597
723.172	574.874
723.300	568.403
723.428	569.664
723.556	567.151
723.685	566.025
723.813	566.202
723.941	561.622
724.069	566.487
724.197	565.235
724.325	551.866
724.453	560.261
724.581	549.588
724.710	547.504
724.838	548.176
724.966	536.118
725.094	541.513
725.222	540.832
725.350	537.303
725.478	538.345
725.606	534.975
725.735	525.168
725.863	530.429
725.991	528.134
726.119	526.277
726.247	530.454
726.375	519.723
726.503	517.176
726.631	523.538
726.760	512.563
726.888	516.000
727.016	511.613
727.144	508.479
727.272	503.244
727.400	504.395
727.528	496.328
727.656	498.471
727.785	494.319
727.913	499.664
728.041	497.412
728.169	496.840
728.297	489.437
728.425	488.975
728.553	489.605
728.681	479.345
728.810	479.874
728.938	482.437
729.066	482.319
729.194	478.218
729.322	478.471
729.450	471.134
729.578	473.202
729.706	469.782
729.835	475.429
729.963	469.529
730.091	462.714
730.219	463.328
730.347	461.160
730.475	454.538
730.603	458.471
730.731	459.714
730.860	453.353
730.988	453.605
731.116	452.723
731.244	453.529
731.372	446.143
731.500	446.244
731.628	444.412
731.756	442.664
731.885	441.403
732.013	442.202
732.141	431.277
732.269	438.521
732.397	434.319
732.525	429.193
732.653	434.958
732.781	430.765
732.910	428.429
733.038	425.874
733.166	424.622
733.294	427.798
733.422	423.605
733.550	421.160
733.678	421.437
733.806	421.555
733.935	421.168
734.063	415.815
734.191	414.437
734.319	410.706
734.447	411.277
734.575	413.261
734.703	407.790
734.831	408.151
734.960	402.866
735.088	404.613
735.216	400.647
735.344	401.815
735.472	401.782
735.600	405.916
735.728	397.975
735.856	397.697
735.985	399.202
736.113	392.471
736.241	391.765
736.369	391.168
736.497	389.933
736.625	393.160
736.753	388.849
736.881	385.857
737.010	381.824
737.138	384.403
737.266	378.303
737.394	382.092
737.522	377.286
737.650	377.462
737.778	373.487
737.906	374.412
738.035	369.412
738.163	373.445
738.291	367.084
738.419	368.571
738.547	365.908
738.675	371.176
738.803	366.042
738.931	365.975
739.060	367.630
739.188	361.294
739.316	360.681
739.444	355.017
739.572	356.529
739.700	359.639
739.828	358.101
739.956	353.538
740.085	353.798
740.213	355.403
740.341	347.479
740.469	351.429
740.597	344.756
740.725	351.580
740.853	349.092
740.981	349.866
741.110	344.437
741.238	349.084
741.366	346.176
741.494	346.916
741.622	341.597
741.750	342.630
741.878	338.882
742.006	339.168
742.135	336.025
742.263	333.815
742.391	335.992
742.519	337.580
742.647	331.622
742.775	334.672
742.903	334.336
743.031	330.815
743.160	328.521
743.288	328.076
743.416	322.622
743.544	323.588
743.672	327.252
743.800	325.370
743.928	323.042
744.056	325.555
744.185	326.118
744.313	323.580
744.441	321.639
744.569	320.227
744.697	316.462
744.825	323.664
744.953	318.672
745.081	316.580
745.210	318.076
745.338	314.546
745.466	311.479
745.594	314.378
745.722	313.025
745.850	308.202
745.978	307.916
746.106	309.689
746.235	304.975
746.363	308.882
746.491	308.311
746.619	306.882
746.747	306.311
746.875	302.672
747.003	304.218
747.131	303.050
747.260	298.790
747.388	299.908
747.516	299.605
747.644	296.319
747.772	293.193
747.900	291.563
748.028	292.143
748.156	290.588
748.285	291.429
748.413	291.849
748.541	291.277
748.669	292.529
748.797	288.353
748.925	289.630
749.053	283.042
749.181	284.378
749.310	284.807
749.438	284.882
749.566	280.580
749.694	279.403
749.822	277.319
749.950	280.605
750.078	279.462
750.206	278.059
750.335	276.546
750.463	278.916
750.591	273.765
750.719	276.034
750.847	270.790
750.975	270.538
751.103	269.437
751.231	268.655
751.360	268.000
751.488	263.378
751.616	261.782
751.744	264.521
751.872	256.983
752.000	267.697
752.128	258.655
752.256	260.992
752.385	257.101
752.513	261.202
752.641	253.908
752.769	259.235
752.897	257.118
753.025	251.950
753.153	254.185
753.281	254.235
753.410	250.613
753.538	251.210
753.666	250.151
753.794	249.496
753.922	253.118
754.050	246.630
754.178	248.252
754.306	246.370
754.435	242.269
754.563	246.328
754.691	243.748
754.819	237.672
754.947	244.025
755.075	244.370
755.203	239.185
755.331	241.924
755.460	239.950
755.588	238.563
755.716	233.815
755.844	235.235
755.972	234.420
756.100	237.244
756.228	234.429
756.356	234.168
756.485	236.328
756.613	235.345
756.741	228.655
756.869	231.605
756.997	229.941
757.125	231.958
757.253	228.218
757.381	227.151
757.510	228.269
757.638	225.874
757.766	227.185
757.894	226.454
758.022	226.092
758.150	223.261
758.278	221.933
758.406	221.143
758.535	222.866
758.663	222.807
758.791	220.655
758.919	218.580
759.047	218.387
759.175	220.647
759.303	216.311
759.431	216.605
759.560	216.916
759.688	215.815
759.816	214.496
759.944	213.370
760.072	210.311
760.200	209.084
760.328	215.034
760.456	215.655
760.585	213.050
760.713	208.756
760.841	210.319
760.969	207.496
761.097	208.538
761.225	207.857
761.353	210.933
761.481	206.025
761.610	207.176
761.738	204.975
761.866	205.891
761.994	201.731
762.122	207.630
762.250	201.008
762.378	201.958
762.506	202.218
762.635	201.008
762.763	200.983
762.891	202.731
763.019	201.303
763.147	201.345
763.275	200.387
763.403	201.244
763.531	194.849
763.660	197.008
763.788	196.261
763.916	197.588
764.044	195.824
764.172	194.143
764.300	193.437
764.428	194.269
764.556	193.143
764.685	191.555
764.813	192.739
764.941	193.538
765.069	191.437
765.197	190.437
765.325	187.622
765.453	189.773
765.581	192.244
765.710	185.891
765.838	190.697
765.966	186.261
766.094	188.731
766.222	187.992
766.350	186.025
766.478	187.059
766.606	182.916
766.735	185.294
766.863	184.958
766.991	184.689
767.119	182.277
767.247	181.958
767.375	182.353
767.503	182.252
767.631	183.403
767.760	180.782
767.888	179.336
768.016	181.345
768.144	179.151
768.272	180.933
768.400	179.639
768.528	178.202
768.656	178.597
768.785	176.370
768.913	175.723
769.041	176.429
769.169	177.050
769.297	177.008
769.425	176.252
769.553	173.353
769.681	174.756
769.810	177.639
769.938	173.319
770.066	174.513
770.194	173.908
770.322	173.782
770.450	172.664
770.578	172.294
770.706	172.899
770.835	174.084
770.963	171.403
771.091	170.328
771.219	168.580
771.347	169.311
771.475	170.160
771.603	170.454
771.731	169.941
771.860	170.445
771.988	168.361
772.116	167.840
772.244	166.084
772.372	166.992
772.500	166.336
772.628	167.429
772.756	167.630
772.885	163.983
773.013	165.782
773.141	163.319
773.269	162.975
773.397	165.597
773.525	162.345
773.653	164.664
773.781	161.723
773.910	160.933
774.038	164.176
774.166	162.151
774.294	164.168
774.422	159.370
774.550	161.429
774.678	161.983
774.806	158.034
774.935	161.479
775.063	160.050
775.191	160.538
775.319	160.462
775.447	157.630
775.575	159.462
775.703	157.538
775.831	158.664
775.960	159.261
776.088	155.807
776.216	156.849
776.344	157.168
776.472	156.832
776.600	156.235
776.728	152.723
776.856	156.824
776.985	154.908
777.113	154.513
777.241	154.412
777.369	153.613
777.497	151.630
777.625	154.445
777.753	152.319
777.881	151.479
778.010	150.588
778.138	149.950
778.266	149.420
778.394	151.017
778.522	150.361
778.650	150.924
778.778	149.950
778.906	151.000
779.035	151.050
779.163	149.529
779.291	148.815
779.419	150.160
779.547	150.000
779.675	148.210
779.803	146.303
779.931	147.092
780.060	147.899
780.188	147.084
780.316	149.210
780.444	147.824
780.572	144.462
780.700	148.176
780.828	144.773
780.956	146.370
781.085	147.815
781.213	144.546
781.341	144.126
781.469	143.328
781.597	143.958
781.725	144.782
781.853	144.328
781.981	142.882
782.110	144.403
782.238	143.731
782.366	142.092
782.494	143.034
782.622	143.866
782.750	140.765
782.878	141.454
783.006	141.664
783.135	139.647
783.263	138.697
783.391	139.908
783.519	140.235
783.647	140.866
783.775	139.504
783.903	138.176
784.031	136.303
784.160	138.286
784.288	136.739
784.416	136.067
784.544	136.605
784.672	139.563
784.800	138.647
784.928	136.529
785.056	136.672
785.185	135.277
785.313	134.882
785.441	134.403
785.569	134.445
785.697	136.050
785.825	133.597
785.953	133.118
786.081	134.429
786.210	133.723
786.338	134.639
786.466	134.294
786.594	131.487
786.722	134.857
786.850	132.361
786.978	131.933
787.106	133.471
787.235	130.160
787.363	133.126
787.491	133.378
787.619	131.143
787.747	130.244
787.875	130.378
788.003	129.151
788.131	131.303
788.260	130.840
788.388	132.193
788.516	129.471
788.644	130.605
788.772	129.420
788.900	130.882
789.028	129.328
789.156	129.151
789.285	127.286
789.413	127.311
789.541	128.361
789.669	127.403
789.797	128.126
789.925	127.664
790.053	129.017
790.181	129.101
790.310	127.042
790.438	126.655
790.566	126.008
790.694	126.210
790.822	126.773
790.950	127.513
791.078	125.168
791.206	125.706
791.335	126.294
791.463	125.798
791.591	125.933
791.719	125.395
791.847	125.168
791.975	124.723
792.103	124.706
792.231	124.966
792.360	125.218
792.488	125.471
792.616	125.017
792.744	125.000
792.872	123.277
793.000	121.975
793.128	121.958
793.256	123.571
793.385	123.555
793.513	122.857
793.641	124.437
793.769	121.269
793.897	122.151
794.025	122.303
794.153	122.630
794.281	121.496
794.410	120.134
794.538	122.143
794.666	121.000
794.794	122.151
794.922	122.521
795.050	120.664
795.178	121.042
795.306	119.101
795.435	121.655
795.563	120.798
795.691	120.563
795.819	119.613
795.947	120.605
796.075	119.286
796.203	120.672
796.331	118.975
796.460	119.311
796.588	119.832
796.716	118.941
796.844	120.084
796.972	120.387
797.100	118.050
797.228	119.782
797.356	121.294
797.485	118.277
797.613	119.437
797.741	118.714
797.869	117.924
797.997	118.504
798.125	118.471
798.253	117.588
798.381	117.462
798.510	116.605
798.638	117.151
798.766	116.697
798.894	116.387
799.022	117.185
799.150	117.101
799.278	115.017
799.406	118.462
799.535	116.765
799.663	117.092
799.791	115.050
799.919	116.277
800.047	116.311
800.175	116.613
800.303	114.630
800.431	116.605
800.560	115.059
800.688	114.824
800.816	113.975
800.944	114.714
801.072	116.933
801.200	115.462
801.328	114.975
801.456	116.126
801.585	116.042
801.713	114.672
801.841	114.882
801.969	113.975
802.097	115.160
802.225	113.370
802.353	114.496
802.481	114.958
802.610	115.874
802.738	113.891
802.866	114.176
802.994	113.294
803.122	113.891
803.250	114.319
803.378	113.437
803.506	114.042
803.635	115.008
803.763	112.555
803.891	113.622
804.019	114.034
804.147	114.513
804.275	112.739
804.403	113.613
804.531	112.790
804.660	112.630
804.788	112.924
804.916	112.874
805.044	112.445
805.172	112.412
805.300	110.639
805.428	111.739
805.556	111.824
805.685	112.529
805.813	112.555
805.941	111.714
806.069	113.832
806.197	113.176
806.325	110.563
806.453	112.529
806.581	112.319
806.710	110.773
806.838	109.588
806.966	111.933
807.094	111.294
807.222	112.067
807.350	111.445
807.478	111.487
807.606	111.025
807.735	111.681
807.863	112.160
807.991	111.647
808.119	110.630
808.247	110.832
808.375	111.294
808.503	110.151
808.631	111.143
808.760	110.773
808.888	110.748
809.016	112.168
809.144	110.966
809.272	111.748
809.400	112.025
809.528	111.185
809.656	110.445
809.785	110.076
809.913	110.555
810.041	111.034
810.169	110.168
810.297	110.496
810.425	110.025
810.553	109.849
810.681	110.891
810.810	111.168
810.938	110.639
811.066	108.160
811.194	108.975
811.322	109.630
811.450	109.630
811.578	110.706
811.706	110.328
811.835	109.647
811.963	109.487
812.091	109.563
812.219	109.706
812.347	109.303
812.475	110.462
812.603	110.118
812.731	108.252
812.860	109.832
812.988	108.975
813.116	107.857
813.244	109.958
813.372	109.723
813.500	109.101
813.628	109.412
813.756	107.353
813.885	109.899
814.013	109.378
814.141	110.076
814.269	108.731
814.397	109.261
814.525	109.454
814.653	110.445
814.781	108.983
814.910	108.353
815.038	109.244
815.166	109.269
815.294	108.336
815.422	109.899
815.550	108.681
815.678	107.782
815.806	108.277
815.935	108.185
816.063	107.815
816.191	107.513
816.319	109.269
816.447	109.429
816.575	108.571
816.703	108.202
816.831	109.000
816.960	109.866
817.088	107.319
817.216	108.387
817.344	107.815
817.472	108.815
817.600	107.647
817.728	107.773
817.856	107.866
817.985	107.084
818.113	107.739
818.241	107.521
818.369	108.034
818.497	108.437
818.625	106.891
818.753	108.269
818.881	107.471
819.010	107.689
819.138	107.479
819.266	106.782
819.394	107.067
819.522	105.832
819.650	108.235
819.778	106.563
819.906	108.025
820.035	107.319
820.163	107.084
820.291	106.244
820.419	106.807
820.547	107.824
820.675	105.546
820.803	107.714
820.931	107.605
821.060	104.950
821.188	106.580
821.316	106.504
821.444	106.689
821.572	106.807
821.700	106.487
821.828	107.563
821.956	107.118
822.085	106.076
822.213	106.866
822.341	107.319
822.469	106.059
822.597	106.235
822.725	105.647
822.853	106.319
822.981	106.504
823.110	107.630
823.238	105.084
823.366	107.479
823.494	105.311
823.622	106.529
823.750	106.857
823.878	104.647
824.006	107.160
824.135	106.664
824.263	106.840
824.391	106.118
824.519	106.807
824.647	106.429
824.775	106.756
824.903	107.412
825.031	107.773
825.160	106.958
825.288	105.697
825.416	106.303
825.544	106.513
825.672	107.017
825.800	105.975
825.928	106.697
826.056	106.034
826.185	105.655
826.313	106.840
826.441	105.630
826.569	104.866
826.697	106.462
826.825	105.504
826.953	106.882
827.081	105.513
827.210	105.311
827.338	104.966
827.466	105.815
827.594	106.798
827.722	106.227
827.850	105.244
827.978	105.050
828.106	105.933
828.235	106.941
828.363	106.269
828.491	105.563
828.619	105.118
828.747	105.866
828.875	105.941
829.003	105.866
829.131	106.294
829.260	106.521
829.388	105.328
829.516	106.412
829.644	106.160
829.772	106.605
829.900	105.286
830.028	106.521
830.156	105.555
830.285	105.613
830.413	106.269
830.541	105.429
830.669	105.092
830.797	105.403
830.925	105.546
831.053	104.387
831.181	105.403
831.310	106.605
831.438	105.286
831.566	105.647
831.694	105.328
831.822	104.403
831.950	104.546
832.078	105.454
832.206	105.042
832.335	105.151
832.463	106.303
832.591	106.025
832.719	105.050
832.847	105.706
832.975	105.084
833.103	105.546
833.231	105.244
833.360	105.193
833.488	105.227
833.616	105.176
833.744	104.294
833.872	105.647
834.000	105.773
834.128	105.966
834.256	105.580
834.385	103.773
834.513	105.798
834.641	103.874
834.769	104.202
834.897	104.782
835.025	103.891
835.153	103.840
835.281	104.008
835.410	104.798
835.538	104.319
835.666	104.983
835.794	105.092
835.922	105.412
836.050	105.370
836.178	105.202
836.306	104.092
836.435	104.857
836.563	105.067
836.691	105.286
836.819	106.563
836.947	104.084
837.075	104.286
837.203	103.849
837.331	104.731
837.460	104.849
837.588	104.034
837.716	104.655
837.844	104.992
837.972	104.303
838.100	104.647
838.228	103.874
838.356	103.176
838.485	102.487
838.613	104.378
838.741	104.647
838.869	104.328
838.997	104.790
839.125	103.126
839.253	104.445
839.381	104.857
839.510	104.571
839.638	104.849
839.766	103.462
839.894	104.218
840.022	104.529
840.150	104.261
840.278	103.672
840.406	105.042
840.535	104.882
840.663	103.067
840.791	102.992
840.919	104.294
841.047	103.849
841.175	104.975
841.303	103.950
841.431	104.739
841.560	104.261
841.688	104.151
841.816	104.059
841.944	104.008
842.072	104.092
842.200	104.025
842.328	105.840
842.456	104.555
842.585	104.412
842.713	104.874
842.841	104.496
842.969	104.328
843.097	104.714
843.225	103.924
843.353	104.487
843.481	103.807
843.610	104.101
843.738	103.681
843.866	103.597
