70-100-90_at_679.99nm_cut_at_1283.50Y_01.dat
24.01.2024
11:30:51
cut middle at Y: 1283.50
top cursor: 1343 down cursor: 1224 mean of: 119 lines , 2560 datapoints
wavelength(nm)	intensity[arb. units]
515.994	690.723
516.122	643.840
516.250	642.908
516.378	630.588
516.506	633.479
516.635	632.420
516.763	639.210
516.891	638.454
517.019	641.689
517.147	639.563
517.275	638.899
517.403	640.227
517.531	641.756
517.660	632.034
517.788	637.134
517.916	640.000
518.044	633.319
518.172	645.555
518.300	640.017
518.428	642.891
518.556	640.546
518.685	637.815
518.813	645.286
518.941	649.471
519.069	643.328
519.197	645.336
519.325	651.832
519.453	642.437
519.581	654.857
519.710	652.412
519.838	656.916
519.966	649.420
520.094	656.235
520.222	651.891
520.350	655.437
520.478	664.092
520.606	673.555
520.735	653.563
520.863	669.933
520.991	672.681
521.119	665.882
521.247	670.387
521.375	675.437
521.503	673.403
521.631	676.345
521.760	669.328
521.888	675.277
522.016	682.756
522.144	677.101
522.272	681.605
522.400	682.874
522.528	687.748
522.656	678.395
522.785	688.361
522.913	691.849
523.041	687.992
523.169	681.983
523.297	684.563
523.425	689.748
523.553	691.613
523.681	686.588
523.810	690.210
523.938	694.521
524.066	687.429
524.194	693.958
524.322	690.647
524.450	690.017
524.578	684.563
524.706	695.395
524.835	690.261
524.963	692.118
525.091	685.546
525.219	697.076
525.347	689.143
525.475	701.748
525.603	690.168
525.731	691.269
525.860	690.244
525.988	687.597
526.116	688.664
526.244	696.328
526.372	688.244
526.500	691.664
526.628	701.824
526.756	687.403
526.885	697.832
527.013	695.487
527.141	691.882
527.269	696.353
527.397	695.681
527.525	701.437
527.653	697.017
527.781	692.311
527.910	703.874
528.038	705.395
528.166	705.689
528.294	702.445
528.422	702.395
528.550	705.782
528.678	708.143
528.806	704.849
528.935	712.412
529.063	711.160
529.191	709.840
529.319	710.815
529.447	712.151
529.575	712.958
529.703	718.000
529.831	722.756
529.960	721.109
530.088	722.941
530.216	720.697
530.344	719.261
530.472	725.437
530.600	722.605
530.728	727.151
530.856	729.487
530.985	728.042
531.113	722.151
531.241	728.958
531.369	730.277
531.497	730.529
531.625	727.916
531.753	731.378
531.881	727.059
532.010	729.387
532.138	730.420
532.266	727.193
532.394	726.882
532.522	723.857
532.650	736.445
532.778	731.487
532.906	724.689
533.035	737.916
533.163	720.126
533.291	723.748
533.419	723.017
533.547	729.227
533.675	724.361
533.803	724.025
533.931	724.748
534.060	720.824
534.188	729.101
534.316	725.218
534.444	723.807
534.572	722.361
534.700	725.210
534.828	727.311
534.956	736.546
535.085	733.134
535.213	737.924
535.341	735.571
535.469	730.798
535.597	735.824
535.725	735.941
535.853	744.361
535.981	736.681
536.110	748.697
536.238	746.050
536.366	756.714
536.494	748.924
536.622	751.134
536.750	745.076
536.878	750.261
537.006	760.294
537.135	756.529
537.263	752.840
537.391	754.143
537.519	750.840
537.647	760.445
537.775	756.571
537.903	763.454
538.031	765.487
538.160	760.067
538.288	762.118
538.416	770.151
538.544	767.151
538.672	765.429
538.800	770.176
538.928	772.756
539.056	774.546
539.185	775.538
539.313	768.992
539.441	774.025
539.569	771.723
539.697	777.563
539.825	774.487
539.953	772.235
540.081	768.739
540.210	772.622
540.338	771.176
540.466	776.067
540.594	773.563
540.722	763.471
540.850	776.185
540.978	781.655
541.106	774.916
541.235	778.748
541.363	777.143
541.491	777.655
541.619	773.529
541.747	772.773
541.875	777.261
542.003	775.807
542.131	778.059
542.260	781.151
542.388	775.076
542.516	776.882
542.644	783.336
542.772	779.739
542.900	777.756
543.028	772.303
543.156	780.109
543.285	779.269
543.413	783.387
543.541	785.798
543.669	789.529
543.797	789.605
543.925	782.336
544.053	789.790
544.181	782.882
544.310	783.059
544.438	781.748
544.566	781.252
544.694	790.261
544.822	789.622
544.950	789.050
545.078	792.050
545.206	791.008
545.335	797.580
545.463	787.487
545.591	791.933
545.719	791.454
545.847	793.916
545.975	796.210
546.103	792.580
546.231	800.000
546.360	795.437
546.488	797.672
546.616	799.412
546.744	802.941
546.872	794.807
547.000	802.000
547.128	797.706
547.256	800.924
547.385	799.958
547.513	800.832
547.641	804.076
547.769	812.580
547.897	804.269
548.025	803.874
548.153	811.958
548.281	804.084
548.410	810.824
548.538	810.966
548.666	808.706
548.794	810.471
548.922	809.361
549.050	809.437
549.178	810.529
549.306	810.345
549.435	817.891
549.563	807.420
549.691	807.244
549.819	815.042
549.947	822.059
550.075	814.983
550.203	804.143
550.331	810.605
550.460	813.412
550.588	808.034
550.716	813.454
550.844	804.933
550.972	802.941
551.100	802.311
551.228	807.370
551.356	800.504
551.485	806.429
551.613	801.134
551.741	795.303
551.869	795.773
551.997	793.958
552.125	793.118
552.253	792.101
552.381	788.916
552.510	789.916
552.638	780.874
552.766	793.605
552.894	785.950
553.022	790.034
553.150	787.513
553.278	784.513
553.406	772.462
553.535	780.151
553.663	785.050
553.791	782.235
553.919	778.387
554.047	791.134
554.175	785.731
554.303	779.613
554.431	770.975
554.560	786.420
554.688	789.605
554.816	784.092
554.944	788.227
555.072	782.513
555.200	789.664
555.328	781.042
555.456	794.395
555.585	782.714
555.713	789.445
555.841	797.437
555.969	795.874
556.097	794.866
556.225	802.487
556.353	802.706
556.481	794.378
556.610	809.017
556.738	804.555
556.866	804.672
556.994	796.328
557.122	794.950
557.250	803.672
557.378	808.521
557.506	804.017
557.635	803.521
557.763	812.546
557.891	814.420
558.019	805.261
558.147	814.261
558.275	813.176
558.403	817.235
558.531	817.521
558.660	808.975
558.788	823.882
558.916	820.891
559.044	813.151
559.172	817.370
559.300	824.202
559.428	824.134
559.556	819.336
559.685	823.395
559.813	823.983
559.941	823.857
560.069	830.067
560.197	832.908
560.325	830.664
560.453	824.092
560.581	825.521
560.710	829.950
560.838	823.336
560.966	820.084
561.094	830.303
561.222	827.605
561.350	826.924
561.478	816.798
561.606	825.160
561.735	822.773
561.863	819.496
561.991	825.370
562.119	815.025
562.247	820.437
562.375	814.950
562.503	818.109
562.631	819.723
562.760	819.840
562.888	821.714
563.016	818.950
563.144	821.269
563.272	811.361
563.400	816.143
563.528	808.420
563.656	819.882
563.785	818.672
563.913	812.202
564.041	810.403
564.169	819.983
564.297	814.546
564.425	810.882
564.553	821.479
564.681	817.000
564.810	813.655
564.938	818.975
565.066	809.286
565.194	817.639
565.322	821.008
565.450	821.849
565.578	814.563
565.706	818.109
565.835	819.832
565.963	816.681
566.091	821.059
566.219	819.739
566.347	815.950
566.475	818.983
566.603	827.538
566.731	825.109
566.860	823.840
566.988	823.891
567.116	838.504
567.244	828.176
567.372	842.252
567.500	844.345
567.628	837.134
567.756	833.756
567.885	843.933
568.013	848.235
568.141	843.109
568.269	840.773
568.397	836.807
568.525	841.487
568.653	856.933
568.781	851.445
568.910	865.269
569.038	859.706
569.166	857.387
569.294	855.076
569.422	860.782
569.550	851.992
569.678	857.563
569.806	870.731
569.935	862.134
570.063	864.303
570.191	875.580
570.319	863.193
570.447	877.471
570.575	876.580
570.703	871.319
570.831	878.437
570.960	872.437
571.088	878.059
571.216	879.504
571.344	878.689
571.472	875.866
571.600	890.950
571.728	877.345
571.856	884.765
571.985	885.782
572.113	885.496
572.241	887.849
572.369	892.437
572.497	888.025
572.625	894.639
572.753	894.748
572.881	892.555
573.010	893.639
573.138	908.723
573.266	904.042
573.394	902.529
573.522	899.134
573.650	900.504
573.778	903.521
573.906	893.874
574.035	892.143
574.163	897.714
574.291	902.924
574.419	902.748
574.547	905.966
574.675	911.639
574.803	917.336
574.931	898.336
575.060	915.916
575.188	902.714
575.316	905.899
575.444	905.580
575.572	909.815
575.700	898.403
575.828	911.294
575.956	915.395
576.085	904.227
576.213	904.387
576.341	901.849
576.469	902.756
576.597	897.496
576.725	900.471
576.853	903.538
576.981	900.479
577.110	897.252
577.238	904.630
577.366	896.849
577.494	891.227
577.622	894.622
577.750	911.000
577.878	896.538
578.006	905.370
578.135	898.681
578.263	893.101
578.391	910.227
578.519	897.798
578.647	906.639
578.775	904.000
578.903	896.748
579.031	907.370
579.160	902.412
579.288	894.605
579.416	895.840
579.544	902.706
579.672	905.395
579.800	915.370
579.928	899.555
580.056	884.420
580.185	905.176
580.313	907.933
580.441	910.630
580.569	900.748
580.697	906.126
580.825	905.168
580.953	916.731
581.081	909.176
581.210	915.076
581.338	917.891
581.466	917.672
581.594	921.714
581.722	908.210
581.850	909.840
581.978	916.420
582.106	921.286
582.235	928.899
582.363	912.815
582.491	927.933
582.619	918.866
582.747	926.706
582.875	934.193
583.003	935.513
583.131	935.714
583.260	941.151
583.388	942.765
583.516	936.815
583.644	946.630
583.772	941.908
583.900	944.992
584.028	957.092
584.156	945.361
584.285	960.261
584.413	958.336
584.541	959.798
584.669	965.765
584.797	966.345
584.925	974.328
585.053	976.706
585.181	974.840
585.310	979.504
585.438	977.277
585.566	981.143
585.694	986.546
585.822	997.126
585.950	988.353
586.078	991.639
586.206	996.143
586.335	997.008
586.463	1007.538
586.591	1010.353
586.719	1008.143
586.847	1011.370
586.975	1005.126
587.103	1012.689
587.231	997.126
587.360	1016.790
587.488	1013.647
587.616	1012.412
587.744	1019.134
587.872	1008.151
588.000	1012.437
588.128	1025.345
588.256	1021.185
588.385	1015.294
588.513	1022.975
588.641	1026.487
588.769	1032.277
588.897	1022.748
589.025	1023.882
589.153	1025.714
589.281	1023.916
589.410	1030.992
589.538	1028.782
589.666	1026.664
589.794	1028.202
589.922	1035.319
590.050	1039.630
590.178	1028.445
590.306	1033.958
590.435	1032.261
590.563	1031.176
590.691	1041.546
590.819	1033.571
590.947	1043.639
591.075	1036.092
591.203	1025.966
591.331	1045.076
591.460	1051.597
591.588	1037.706
591.716	1050.882
591.844	1051.109
591.972	1053.000
592.100	1057.235
592.228	1053.017
592.356	1054.261
592.485	1047.908
592.613	1050.706
592.741	1055.941
592.869	1061.807
592.997	1056.706
593.125	1064.613
593.253	1069.210
593.381	1063.630
593.510	1070.345
593.638	1067.109
593.766	1070.387
593.894	1076.084
594.022	1072.134
594.150	1071.134
594.278	1084.303
594.406	1083.681
594.535	1078.050
594.663	1084.252
594.791	1092.311
594.919	1089.445
595.047	1097.403
595.175	1092.218
595.303	1088.622
595.431	1101.134
595.560	1107.235
595.688	1108.546
595.816	1099.471
595.944	1112.261
596.072	1113.143
596.200	1112.244
596.328	1104.857
596.456	1111.185
596.585	1120.555
596.713	1131.361
596.841	1118.529
596.969	1121.513
597.097	1128.084
597.225	1129.277
597.353	1135.370
597.481	1137.513
597.610	1132.748
597.738	1136.353
597.866	1141.328
597.994	1149.588
598.122	1154.429
598.250	1148.849
598.378	1144.613
598.506	1153.395
598.635	1140.370
598.763	1165.815
598.891	1160.790
599.019	1166.815
599.147	1151.429
599.275	1159.571
599.403	1165.714
599.531	1174.521
599.660	1174.471
599.788	1178.664
599.916	1173.513
600.044	1177.336
600.172	1179.723
600.300	1198.891
600.428	1190.714
600.556	1193.185
600.685	1204.387
600.813	1196.353
600.941	1213.605
601.069	1206.429
601.197	1216.975
601.325	1211.101
601.453	1215.966
601.581	1217.445
601.710	1221.000
601.838	1229.563
601.966	1229.311
602.094	1225.429
602.222	1235.462
602.350	1227.950
602.478	1241.218
602.606	1244.395
602.735	1243.126
602.863	1259.546
602.991	1254.538
603.119	1263.882
603.247	1264.244
603.375	1265.252
603.503	1258.202
603.631	1273.084
603.760	1277.412
603.888	1284.160
604.016	1271.832
604.144	1290.235
604.272	1296.277
604.400	1292.387
604.528	1290.487
604.656	1295.731
604.785	1307.437
604.913	1310.008
605.041	1322.235
605.169	1315.908
605.297	1314.546
605.425	1321.311
605.553	1324.370
605.681	1324.462
605.810	1323.471
605.938	1336.840
606.066	1335.336
606.194	1342.277
606.322	1334.866
606.450	1347.748
606.578	1360.529
606.706	1359.874
606.835	1349.311
606.963	1363.336
607.091	1364.193
607.219	1352.277
607.347	1360.664
607.475	1371.782
607.603	1362.193
607.731	1357.815
607.860	1357.395
607.988	1372.336
608.116	1357.176
608.244	1367.134
608.372	1377.151
608.500	1382.176
608.628	1372.689
608.756	1370.723
608.885	1374.345
609.013	1374.109
609.141	1385.958
609.269	1384.017
609.397	1376.193
609.525	1377.067
609.653	1384.941
609.781	1384.521
609.910	1389.143
610.038	1379.403
610.166	1386.908
610.294	1378.723
610.422	1395.706
610.550	1390.975
610.678	1397.655
610.806	1393.387
610.935	1392.790
611.063	1388.395
611.191	1390.353
611.319	1395.681
611.447	1388.950
611.575	1397.025
611.703	1387.025
611.831	1399.655
611.960	1391.723
612.088	1388.092
612.216	1413.471
612.344	1415.101
612.472	1392.958
612.600	1401.345
612.728	1403.202
612.856	1400.882
612.985	1400.933
613.113	1401.076
613.241	1411.613
613.369	1409.857
613.497	1420.017
613.625	1422.706
613.753	1423.555
613.881	1414.840
614.010	1418.000
614.138	1419.966
614.266	1417.487
614.394	1416.050
614.522	1423.462
614.650	1432.176
614.778	1439.193
614.906	1436.202
615.035	1434.899
615.163	1436.261
615.291	1439.345
615.419	1436.706
615.547	1439.076
615.675	1451.588
615.803	1443.361
615.931	1457.218
616.060	1462.798
616.188	1467.454
616.316	1455.647
616.444	1463.092
616.572	1467.748
616.700	1457.874
616.828	1474.143
616.956	1486.908
617.085	1499.235
617.213	1492.294
617.341	1471.639
617.469	1491.025
617.597	1506.782
617.725	1502.840
617.853	1489.899
617.981	1504.202
618.110	1513.689
618.238	1498.529
618.366	1530.345
618.494	1526.361
618.622	1515.975
618.750	1526.361
618.878	1528.521
619.006	1529.622
619.135	1548.193
619.263	1546.361
619.391	1550.311
619.519	1548.378
619.647	1568.891
619.775	1553.286
619.903	1577.597
620.031	1568.378
620.160	1568.092
620.288	1581.739
620.416	1593.496
620.544	1588.277
620.672	1600.277
620.800	1591.454
620.928	1612.731
621.056	1603.277
621.185	1606.756
621.313	1598.824
621.441	1624.092
621.569	1638.647
621.697	1631.908
621.825	1644.639
621.953	1632.000
622.081	1652.109
622.210	1633.857
622.338	1651.479
622.466	1650.311
622.594	1668.277
622.722	1670.866
622.850	1673.092
622.978	1679.319
623.106	1673.244
623.235	1689.109
623.363	1687.773
623.491	1684.613
623.619	1680.597
623.747	1681.294
623.875	1687.017
624.003	1685.160
624.131	1700.303
624.260	1680.101
624.388	1711.025
624.516	1711.076
624.644	1699.017
624.772	1705.538
624.900	1714.143
625.028	1703.580
625.156	1734.067
625.285	1718.613
625.413	1722.563
625.541	1725.252
625.669	1727.908
625.797	1728.782
625.925	1731.588
626.053	1725.748
626.181	1740.227
626.310	1730.908
626.438	1737.496
626.566	1728.992
626.694	1738.731
626.822	1739.084
626.950	1742.126
627.078	1759.462
627.206	1740.378
627.335	1765.227
627.463	1759.496
627.591	1766.966
627.719	1754.202
627.847	1766.681
627.975	1771.025
628.103	1750.244
628.231	1762.445
628.360	1758.134
628.488	1775.134
628.616	1776.168
628.744	1760.933
628.872	1777.563
629.000	1773.630
629.128	1774.076
629.256	1788.849
629.385	1787.210
629.513	1778.454
629.641	1797.008
629.769	1776.613
629.897	1788.874
630.025	1781.605
630.153	1807.882
630.281	1795.387
630.410	1785.983
630.538	1808.311
630.666	1794.336
630.794	1802.076
630.922	1790.622
631.050	1790.790
631.178	1814.227
631.306	1800.983
631.435	1808.437
631.563	1806.647
631.691	1790.622
631.819	1806.025
631.947	1822.378
632.075	1810.983
632.203	1818.345
632.331	1817.538
632.460	1813.958
632.588	1828.950
632.716	1823.899
632.844	1820.429
632.972	1837.059
633.100	1829.706
633.228	1833.655
633.356	1824.218
633.485	1832.832
633.613	1831.185
633.741	1841.185
633.869	1836.109
633.997	1823.521
634.125	1822.697
634.253	1823.731
634.381	1822.151
634.510	1828.882
634.638	1816.303
634.766	1828.563
634.894	1832.218
635.022	1825.202
635.150	1832.143
635.278	1858.689
635.406	1842.748
635.535	1836.126
635.663	1853.084
635.791	1819.924
635.919	1845.151
636.047	1834.832
636.175	1822.294
636.303	1851.202
636.431	1848.933
636.560	1851.824
636.688	1841.849
636.816	1841.571
636.944	1843.538
637.072	1852.445
637.200	1846.840
637.328	1842.958
637.456	1846.471
637.585	1843.605
637.713	1857.353
637.841	1839.832
637.969	1847.017
638.097	1836.193
638.225	1856.244
638.353	1859.639
638.481	1855.958
638.610	1873.151
638.738	1854.630
638.866	1853.294
638.994	1857.504
639.122	1864.034
639.250	1870.244
639.378	1853.336
639.506	1862.622
639.635	1872.773
639.763	1851.874
639.891	1878.857
640.019	1887.059
640.147	1879.168
640.275	1870.807
640.403	1862.706
640.531	1870.218
640.660	1871.303
640.788	1882.899
640.916	1876.034
641.044	1912.311
641.172	1897.714
641.300	1896.723
641.428	1892.891
641.556	1907.588
641.685	1885.202
641.813	1896.345
641.941	1901.832
642.069	1898.790
642.197	1903.798
642.325	1891.782
642.453	1926.924
642.581	1919.387
642.710	1907.899
642.838	1931.059
642.966	1901.630
643.094	1910.723
643.222	1914.151
643.350	1900.504
643.478	1930.261
643.606	1930.605
643.735	1929.437
643.863	1915.286
643.991	1942.294
644.119	1935.765
644.247	1934.277
644.375	1932.538
644.503	1948.975
644.631	1948.361
644.760	1941.924
644.888	1953.361
645.016	1933.966
645.144	1959.639
645.272	1941.807
645.400	1956.824
645.528	1953.454
645.656	1943.521
645.785	1945.655
645.913	1952.874
646.041	1964.454
646.169	1936.034
646.297	1934.160
646.425	1953.882
646.553	1951.067
646.681	1949.076
646.810	1940.891
646.938	1951.462
647.066	1948.269
647.194	1936.639
647.322	1938.269
647.450	1943.807
647.578	1956.429
647.706	1946.193
647.835	1947.168
647.963	1932.513
648.091	1944.933
648.219	1930.143
648.347	1939.412
648.475	1940.193
648.603	1934.269
648.731	1926.034
648.860	1910.479
648.988	1940.210
649.116	1926.193
649.244	1910.160
649.372	1909.454
649.500	1910.815
649.628	1922.210
649.756	1914.134
649.885	1892.975
650.013	1902.538
650.141	1885.067
650.269	1884.496
650.397	1899.395
650.525	1893.756
650.653	1891.983
650.781	1870.000
650.910	1878.782
651.038	1862.118
651.166	1877.092
651.294	1857.134
651.422	1868.504
651.550	1855.546
651.678	1845.437
651.806	1851.151
651.935	1855.882
652.063	1835.193
652.191	1846.092
652.319	1844.471
652.447	1834.706
652.575	1811.151
652.703	1810.345
652.831	1817.588
652.960	1808.429
653.088	1819.639
653.216	1796.420
653.344	1795.815
653.472	1808.824
653.600	1793.975
653.728	1791.017
653.856	1785.235
653.985	1811.588
654.113	1791.000
654.241	1791.244
654.369	1780.479
654.497	1797.815
654.625	1787.622
654.753	1768.361
654.881	1789.294
655.010	1786.017
655.138	1776.597
655.266	1773.807
655.394	1747.437
655.522	1763.143
655.650	1746.798
655.778	1763.168
655.906	1761.857
656.035	1755.496
656.163	1750.160
656.291	1751.773
656.419	1755.244
656.547	1746.496
656.675	1743.832
656.803	1741.723
656.931	1736.370
657.060	1745.076
657.188	1745.294
657.316	1730.504
657.444	1734.655
657.572	1739.958
657.700	1729.403
657.828	1721.378
657.956	1728.193
658.085	1744.109
658.213	1727.025
658.341	1725.639
658.469	1722.084
658.597	1729.462
658.725	1731.966
658.853	1718.975
658.981	1702.891
659.110	1718.857
659.238	1712.504
659.366	1703.975
659.494	1705.118
659.622	1711.353
659.750	1707.773
659.878	1694.924
660.006	1700.706
660.135	1695.168
660.263	1697.950
660.391	1675.437
660.519	1691.118
660.647	1679.681
660.775	1683.908
660.903	1680.345
661.031	1660.899
661.160	1672.538
661.288	1676.235
661.416	1681.773
661.544	1664.647
661.672	1672.504
661.800	1664.983
661.928	1663.739
662.056	1655.118
662.185	1655.084
662.313	1653.261
662.441	1663.975
662.569	1656.445
662.697	1646.395
662.825	1653.622
662.953	1655.866
663.081	1635.126
663.210	1643.681
663.338	1647.429
663.466	1635.655
663.594	1618.639
663.722	1619.126
663.850	1611.782
663.978	1608.420
664.106	1625.168
664.235	1618.613
664.363	1628.689
664.491	1594.546
664.619	1608.798
664.747	1621.756
664.875	1608.689
665.003	1591.824
665.131	1612.050
665.260	1608.025
665.388	1591.353
665.516	1592.067
665.644	1583.832
665.772	1583.538
665.900	1591.143
666.028	1582.303
666.156	1581.756
666.285	1584.008
666.413	1588.269
666.541	1578.840
666.669	1573.580
666.797	1561.950
666.925	1568.437
667.053	1577.748
667.181	1555.202
667.310	1557.168
667.438	1548.101
667.566	1540.992
667.694	1542.672
667.822	1548.765
667.950	1535.529
668.078	1535.378
668.206	1547.059
668.335	1533.437
668.463	1537.084
668.591	1529.756
668.719	1524.950
668.847	1517.462
668.975	1512.328
669.103	1523.059
669.231	1520.798
669.360	1523.235
669.488	1522.882
669.616	1499.681
669.744	1505.261
669.872	1489.370
670.000	1519.697
670.128	1486.857
670.256	1493.210
670.385	1484.546
670.513	1498.496
670.641	1473.538
670.769	1479.563
670.897	1476.395
671.025	1474.151
671.153	1469.118
671.281	1480.025
671.410	1476.613
671.538	1466.151
671.666	1465.555
671.794	1458.092
671.922	1445.655
672.050	1443.891
672.178	1454.193
672.306	1436.992
672.435	1439.941
672.563	1441.387
672.691	1433.924
672.819	1439.798
672.947	1418.916
673.075	1410.605
673.203	1411.412
673.331	1409.403
673.460	1414.235
673.588	1405.261
673.716	1413.681
673.844	1401.227
673.972	1404.798
674.100	1392.538
674.228	1399.370
674.356	1379.042
674.485	1381.403
674.613	1366.227
674.741	1374.824
674.869	1367.546
674.997	1359.958
675.125	1363.252
675.253	1343.395
675.381	1350.521
675.510	1336.933
675.638	1341.639
675.766	1340.336
675.894	1333.504
676.022	1337.739
676.150	1325.042
676.278	1327.496
676.406	1322.697
676.535	1309.269
676.663	1305.765
676.791	1298.882
676.919	1296.345
677.047	1298.874
677.175	1278.000
677.303	1288.471
677.431	1282.866
677.560	1279.168
677.688	1281.034
677.816	1266.202
677.944	1269.437
678.072	1264.193
678.200	1262.529
678.328	1243.092
678.456	1242.378
678.585	1242.361
678.713	1247.218
678.841	1228.429
678.969	1237.958
679.097	1239.857
679.225	1227.252
679.353	1229.655
679.481	1211.622
679.610	1226.017
679.738	1198.185
679.866	1207.908
679.994	1203.151
680.122	1209.437
680.250	1192.874
680.378	1199.336
680.506	1182.092
680.635	1184.050
680.763	1190.336
680.891	1172.176
681.019	1182.336
681.147	1171.067
681.275	1158.025
681.403	1161.580
681.531	1166.034
681.660	1144.857
681.788	1147.294
681.916	1146.613
682.044	1151.193
682.172	1135.571
682.300	1129.723
682.428	1130.227
682.556	1130.933
682.685	1122.151
682.813	1124.597
682.941	1122.639
683.069	1112.832
683.197	1124.261
683.325	1101.193
683.453	1109.773
683.581	1097.143
683.710	1096.824
683.838	1107.950
683.966	1087.681
684.094	1100.975
684.222	1100.109
684.350	1090.798
684.478	1096.017
684.606	1092.076
684.735	1081.571
684.863	1076.319
684.991	1071.739
685.119	1065.277
685.247	1061.597
685.375	1060.286
685.503	1062.277
685.631	1065.311
685.760	1061.672
685.888	1057.588
686.016	1053.143
686.144	1043.042
686.272	1032.286
686.400	1050.168
686.528	1041.176
686.656	1048.908
686.785	1036.017
686.913	1034.202
687.041	1031.782
687.169	1034.017
687.297	1032.176
687.425	1023.983
687.553	1013.891
687.681	1022.487
687.810	1016.454
687.938	1014.992
688.066	1016.160
688.194	1012.765
688.322	1010.328
688.450	1007.403
688.578	1008.202
688.706	1009.874
688.835	994.378
688.963	1006.966
689.091	1003.563
689.219	989.303
689.347	984.034
689.475	988.941
689.603	980.092
689.731	981.277
689.860	979.975
689.988	977.269
690.116	966.857
690.244	971.353
690.372	975.168
690.500	971.605
690.628	967.899
690.756	960.303
690.885	964.076
691.013	960.084
691.141	967.227
691.269	960.202
691.397	950.689
691.525	953.193
691.653	955.487
691.781	947.849
691.910	947.807
692.038	936.269
692.166	935.277
692.294	935.571
692.422	932.118
692.550	938.210
692.678	923.050
692.806	926.395
692.935	922.168
693.063	917.303
693.191	912.303
693.319	912.479
693.447	912.429
693.575	911.529
693.703	905.597
693.831	903.950
693.960	906.807
694.088	906.067
694.216	895.042
694.344	894.529
694.472	893.857
694.600	882.891
694.728	885.824
694.856	878.840
694.985	887.874
695.113	878.143
695.241	871.790
695.369	873.622
695.497	877.403
695.625	877.403
695.753	856.588
695.881	858.924
696.010	859.218
696.138	859.445
696.266	851.664
696.394	848.034
696.522	838.378
696.650	840.941
696.778	844.613
696.906	835.420
697.035	829.101
697.163	824.630
697.291	829.983
697.419	813.067
697.547	816.277
697.675	820.908
697.803	817.529
697.931	809.630
698.060	809.412
698.188	806.664
698.316	813.143
698.444	799.176
698.572	799.143
698.700	802.975
698.828	797.748
698.956	786.269
699.085	791.252
699.213	772.328
699.341	778.328
699.469	775.773
699.597	774.613
699.725	765.479
699.853	767.958
699.981	769.731
700.110	761.714
700.238	761.277
700.366	752.328
700.494	753.790
700.622	747.899
700.750	742.403
700.878	749.185
701.006	738.008
701.135	740.798
701.263	737.185
701.391	730.782
701.519	736.504
701.647	727.185
701.775	729.345
701.903	725.353
702.031	725.235
702.160	723.311
702.288	716.933
702.416	714.672
702.544	711.244
702.672	708.571
702.800	706.966
702.928	707.908
703.056	707.479
703.185	707.496
703.313	704.882
703.441	699.160
703.569	694.269
703.697	695.832
703.825	690.387
703.953	695.899
704.081	688.151
704.210	687.916
704.338	686.882
704.466	673.303
704.594	677.529
704.722	676.160
704.850	677.353
704.978	671.916
705.106	669.622
705.235	666.471
705.363	666.261
705.491	666.924
705.619	667.950
705.747	656.151
705.875	658.261
706.003	644.563
706.131	655.387
706.260	650.126
706.388	641.370
706.516	637.034
706.644	639.345
706.772	640.067
706.900	631.832
707.028	633.555
707.156	633.824
707.285	628.950
707.413	622.437
707.541	622.496
707.669	617.176
707.797	617.849
707.925	623.412
708.053	618.630
708.181	614.597
708.310	611.546
708.438	609.378
708.566	606.101
708.694	608.345
708.822	603.353
708.950	602.714
709.078	594.092
709.206	589.092
709.335	591.916
709.463	589.445
709.591	585.739
709.719	582.647
709.847	581.866
709.975	581.983
710.103	575.958
710.231	573.714
710.360	570.916
710.488	567.613
710.616	565.252
710.744	562.874
710.872	568.092
711.000	561.336
711.128	552.429
711.256	553.193
711.385	557.286
711.513	550.874
711.641	550.815
711.769	546.261
711.897	550.294
712.025	538.252
712.153	538.185
712.281	540.336
712.410	541.655
712.538	541.134
712.666	533.471
712.794	531.303
712.922	528.471
713.050	530.395
713.178	528.168
713.306	529.815
713.435	520.000
713.563	523.218
713.691	523.580
713.819	516.479
713.947	509.866
714.075	514.546
714.203	513.639
714.331	510.151
714.460	509.748
714.588	511.109
714.716	503.025
714.844	502.471
714.972	496.160
715.100	501.412
715.228	502.227
715.356	493.067
715.485	494.437
715.613	487.277
715.741	489.933
715.869	489.950
715.997	482.950
716.125	483.832
716.253	484.983
716.381	486.471
716.510	483.924
716.638	481.185
716.766	482.958
716.894	475.437
717.022	471.597
717.150	472.689
717.278	474.437
717.406	473.655
717.535	470.731
717.663	470.521
717.791	468.143
717.919	465.412
718.047	462.739
718.175	458.723
718.303	463.336
718.431	456.882
718.560	459.059
718.688	455.294
718.816	456.899
718.944	452.681
719.072	451.647
719.200	448.050
719.328	448.555
719.456	447.622
719.585	445.420
719.713	449.429
719.841	440.269
719.969	439.235
720.097	438.824
720.225	436.731
720.353	435.941
720.481	433.000
720.610	434.748
720.738	431.025
720.866	434.958
720.994	431.983
721.122	430.471
721.250	431.655
721.378	421.269
721.506	425.639
721.635	424.387
721.763	424.328
721.891	420.832
722.019	416.420
722.147	417.723
722.275	415.597
722.403	415.378
722.531	412.504
722.660	412.983
722.788	410.109
722.916	408.647
723.044	403.193
723.172	401.891
723.300	399.580
723.428	402.655
723.556	403.420
723.685	400.832
723.813	399.613
723.941	398.504
724.069	397.723
724.197	392.798
724.325	390.193
724.453	387.622
724.581	386.185
724.710	384.269
724.838	387.664
724.966	377.748
725.094	383.008
725.222	381.874
725.350	379.429
725.478	374.487
725.606	374.941
725.735	375.941
725.863	374.361
725.991	370.445
726.119	370.218
726.247	369.815
726.375	364.437
726.503	368.504
726.631	365.807
726.760	364.076
726.888	361.244
727.016	358.790
727.144	357.891
727.272	355.983
727.400	356.588
727.528	353.311
727.656	351.311
727.785	350.067
727.913	352.874
728.041	347.479
728.169	348.420
728.297	347.849
728.425	345.210
728.553	346.143
728.681	341.563
728.810	339.580
728.938	339.269
729.066	339.059
729.194	338.176
729.322	336.118
729.450	334.613
729.578	330.756
729.706	330.714
729.835	331.378
729.963	327.689
730.091	326.496
730.219	325.563
730.347	327.134
730.475	320.227
730.603	323.445
730.731	328.025
730.860	318.815
730.988	320.647
731.116	318.908
731.244	322.042
731.372	318.849
731.500	316.345
731.628	318.496
731.756	312.521
731.885	312.244
732.013	311.840
732.141	311.992
732.269	308.025
732.397	310.370
732.525	309.613
732.653	307.462
732.781	302.807
732.910	304.176
733.038	303.202
733.166	303.303
733.294	301.092
733.422	302.958
733.550	300.437
733.678	299.311
733.806	300.437
733.935	297.345
734.063	295.252
734.191	296.286
734.319	295.034
734.447	295.580
734.575	292.151
734.703	290.151
734.831	290.067
734.960	288.067
735.088	289.050
735.216	288.849
735.344	286.126
735.472	284.160
735.600	284.748
735.728	284.681
735.856	283.059
735.985	281.714
736.113	285.000
736.241	278.782
736.369	282.067
736.497	278.504
736.625	278.773
736.753	279.160
736.881	279.126
737.010	275.992
737.138	272.790
737.266	275.445
737.394	275.160
737.522	271.613
737.650	275.471
737.778	270.739
737.906	271.992
738.035	269.176
738.163	268.538
738.291	269.723
738.419	262.513
738.547	265.958
738.675	265.908
738.803	260.765
738.931	261.924
739.060	264.756
739.188	263.941
739.316	262.303
739.444	259.454
739.572	259.546
739.700	259.025
739.828	260.025
739.956	258.294
740.085	257.277
740.213	259.807
740.341	251.496
740.469	253.563
740.597	250.731
740.725	253.748
740.853	253.714
740.981	252.832
741.110	249.731
741.238	252.437
741.366	250.958
741.494	249.697
741.622	247.286
741.750	248.454
741.878	249.269
742.006	244.975
742.135	241.420
742.263	248.067
742.391	238.697
742.519	244.983
742.647	241.824
742.775	244.412
742.903	243.118
743.031	242.706
743.160	240.916
743.288	236.941
743.416	238.202
743.544	234.479
743.672	238.555
743.800	236.202
743.928	239.286
744.056	235.252
744.185	238.008
744.313	234.782
744.441	236.513
744.569	234.269
744.697	228.403
744.825	233.126
744.953	231.874
745.081	230.193
745.210	229.286
745.338	231.118
745.466	230.597
745.594	227.025
745.722	228.378
745.850	226.210
745.978	227.739
746.106	224.924
746.235	223.891
746.363	223.563
746.491	224.563
746.619	223.739
746.747	222.017
746.875	219.160
747.003	221.891
747.131	220.546
747.260	217.849
747.388	219.765
747.516	220.311
747.644	215.664
747.772	218.176
747.900	216.000
748.028	214.798
748.156	213.689
748.285	216.546
748.413	215.202
748.541	215.933
748.669	211.798
748.797	211.538
748.925	210.042
749.053	211.370
749.181	208.681
749.310	209.303
749.438	207.328
749.566	207.202
749.694	209.067
749.822	210.697
749.950	207.017
750.078	209.176
750.206	205.950
750.335	206.000
750.463	206.782
750.591	205.252
750.719	203.168
750.847	204.008
750.975	199.807
751.103	201.345
751.231	200.924
751.360	199.622
751.488	202.176
751.616	200.017
751.744	200.891
751.872	195.975
752.000	197.597
752.128	197.714
752.256	196.269
752.385	198.151
752.513	195.353
752.641	193.168
752.769	196.185
752.897	196.420
753.025	191.798
753.153	191.025
753.281	192.000
753.410	192.050
753.538	191.689
753.666	193.462
753.794	191.429
753.922	189.252
754.050	187.647
754.178	188.059
754.306	186.437
754.435	188.202
754.563	189.336
754.691	186.487
754.819	185.571
754.947	186.420
755.075	185.765
755.203	185.252
755.331	184.496
755.460	185.311
755.588	184.143
755.716	181.546
755.844	180.084
755.972	182.496
756.100	182.639
756.228	182.874
756.356	178.445
756.485	181.824
756.613	181.966
756.741	179.782
756.869	178.235
756.997	179.958
757.125	180.025
757.253	179.765
757.381	177.908
757.510	178.076
757.638	176.639
757.766	178.059
757.894	173.689
758.022	175.714
758.150	174.504
758.278	174.034
758.406	172.227
758.535	173.815
758.663	174.681
758.791	173.723
758.919	173.714
759.047	172.345
759.175	171.605
759.303	174.319
759.431	171.630
759.560	170.244
759.688	171.891
759.816	171.975
759.944	167.244
760.072	170.034
760.200	166.210
760.328	168.244
760.456	169.387
760.585	169.067
760.713	164.395
760.841	167.513
760.969	168.025
761.097	168.269
761.225	167.924
761.353	165.420
761.481	164.689
761.610	165.479
761.738	165.395
761.866	165.218
761.994	162.580
762.122	161.017
762.250	162.008
762.378	162.286
762.506	161.588
762.635	162.756
762.763	162.336
762.891	161.992
763.019	160.437
763.147	159.697
763.275	161.824
763.403	161.681
763.531	159.723
763.660	159.092
763.788	158.992
763.916	159.101
764.044	158.874
764.172	159.202
764.300	157.017
764.428	157.437
764.556	154.630
764.685	156.538
764.813	154.420
764.941	156.143
765.069	153.202
765.197	155.126
765.325	155.739
765.453	154.429
765.581	156.277
765.710	153.303
765.838	153.857
765.966	154.992
766.094	152.681
766.222	152.546
766.350	152.370
766.478	152.765
766.606	151.613
766.735	152.513
766.863	151.866
766.991	150.714
767.119	150.050
767.247	150.311
767.375	152.143
767.503	150.605
767.631	149.958
767.760	149.168
767.888	148.336
768.016	148.529
768.144	146.513
768.272	150.042
768.400	149.521
768.528	147.891
768.656	146.773
768.785	145.689
768.913	147.437
769.041	146.437
769.169	146.832
769.297	146.975
769.425	144.580
769.553	144.748
769.681	145.983
769.810	146.471
769.938	145.361
770.066	144.412
770.194	145.412
770.322	144.891
770.450	146.017
770.578	143.244
770.706	143.555
770.835	143.529
770.963	143.109
771.091	141.723
771.219	140.160
771.347	142.664
771.475	141.454
771.603	140.521
771.731	141.815
771.860	141.336
771.988	139.891
772.116	143.067
772.244	140.882
772.372	139.941
772.500	140.613
772.628	139.975
772.756	138.723
772.885	141.235
773.013	139.756
773.141	138.050
773.269	138.294
773.397	138.034
773.525	137.706
773.653	140.034
773.781	137.992
773.910	135.218
774.038	137.235
774.166	138.521
774.294	138.471
774.422	134.941
774.550	136.588
774.678	137.429
774.806	133.731
774.935	137.983
775.063	136.160
775.191	137.277
775.319	135.748
775.447	137.748
775.575	134.529
775.703	134.126
775.831	133.319
775.960	133.361
776.088	132.933
776.216	133.832
776.344	134.782
776.472	133.563
776.600	132.622
776.728	133.042
776.856	133.840
776.985	130.672
777.113	131.798
777.241	132.773
777.369	131.689
777.497	131.521
777.625	133.000
777.753	131.538
777.881	130.992
778.010	130.261
778.138	131.395
778.266	129.294
778.394	128.563
778.522	130.697
778.650	130.866
778.778	129.807
778.906	131.269
779.035	131.202
779.163	128.336
779.291	129.092
779.419	129.504
779.547	130.319
779.675	128.739
779.803	127.126
779.931	128.462
780.060	128.370
780.188	127.303
780.316	127.437
780.444	130.706
780.572	126.185
780.700	129.580
780.828	127.487
780.956	128.664
781.085	127.345
781.213	127.109
781.341	126.941
781.469	126.403
781.597	128.168
781.725	127.933
781.853	127.361
781.981	127.118
782.110	128.034
782.238	125.227
782.366	126.571
782.494	125.697
782.622	126.244
782.750	127.471
782.878	124.689
783.006	124.681
783.135	126.681
783.263	124.092
783.391	124.378
783.519	124.387
783.647	123.319
783.775	122.773
783.903	125.151
784.031	122.269
784.160	123.403
784.288	123.891
784.416	125.168
784.544	122.084
784.672	123.059
784.800	124.521
784.928	121.269
785.056	123.067
785.185	122.235
785.313	122.176
785.441	120.151
785.569	121.025
785.697	121.916
785.825	121.286
785.953	120.227
786.081	120.681
786.210	121.681
786.338	122.134
786.466	120.227
786.594	119.790
786.722	121.387
786.850	119.924
786.978	119.815
787.106	120.370
787.235	120.437
787.363	121.319
787.491	120.992
787.619	118.706
787.747	119.706
787.875	120.042
788.003	119.445
788.131	118.815
788.260	120.084
788.388	120.807
788.516	119.076
788.644	119.866
788.772	118.378
788.900	119.622
789.028	118.042
789.156	118.773
789.285	117.765
789.413	118.580
789.541	119.454
789.669	118.479
789.797	117.328
789.925	117.958
790.053	117.739
790.181	117.874
790.310	117.193
790.438	118.151
790.566	118.034
790.694	117.908
790.822	117.361
790.950	117.286
791.078	117.429
791.206	116.277
791.335	116.420
791.463	116.143
791.591	115.748
791.719	115.958
791.847	115.126
791.975	115.244
792.103	115.689
792.231	117.529
792.360	115.807
792.488	116.681
792.616	116.151
792.744	115.899
792.872	115.706
793.000	114.538
793.128	114.319
793.256	115.017
793.385	115.042
793.513	116.361
793.641	115.059
793.769	114.613
793.897	115.118
794.025	115.235
794.153	115.782
794.281	114.681
794.410	113.294
794.538	115.303
794.666	114.840
794.794	114.218
794.922	114.933
795.050	115.563
795.178	113.697
795.306	113.714
795.435	113.269
795.563	113.563
795.691	112.916
795.819	112.639
795.947	114.118
796.075	114.681
796.203	114.218
796.331	112.798
796.460	112.538
796.588	112.924
796.716	113.958
796.844	112.538
796.972	113.008
797.100	111.218
797.228	114.706
797.356	113.387
797.485	111.445
797.613	111.992
797.741	113.118
797.869	112.815
797.997	113.420
798.125	111.571
798.253	111.882
798.381	112.025
798.510	111.975
798.638	111.462
798.766	111.118
798.894	110.454
799.022	111.218
799.150	111.941
799.278	110.866
799.406	112.235
799.535	111.697
799.663	112.681
799.791	110.723
799.919	111.605
800.047	111.050
800.175	110.294
800.303	109.185
800.431	111.445
800.560	110.092
800.688	111.193
800.816	110.639
800.944	110.790
801.072	110.966
801.200	111.664
801.328	110.235
801.456	110.924
801.585	110.378
801.713	110.908
801.841	111.050
801.969	111.218
802.097	110.504
802.225	110.303
802.353	111.034
802.481	110.017
802.610	111.328
802.738	110.924
802.866	110.916
802.994	109.521
803.122	110.857
803.250	111.303
803.378	110.261
803.506	109.765
803.635	110.849
803.763	110.303
803.891	110.664
804.019	111.042
804.147	111.252
804.275	109.546
804.403	110.126
804.531	109.294
804.660	108.950
804.788	109.857
804.916	109.151
805.044	109.076
805.172	109.269
805.300	108.815
805.428	109.269
805.556	109.227
805.685	109.513
805.813	110.235
805.941	107.697
806.069	109.958
806.197	110.924
806.325	108.891
806.453	109.840
806.581	109.857
806.710	109.471
806.838	108.412
806.966	109.941
807.094	109.798
807.222	108.647
807.350	108.891
807.478	109.429
807.606	107.622
807.735	108.773
807.863	109.370
807.991	108.387
808.119	107.857
808.247	108.134
808.375	108.622
808.503	108.496
808.631	109.311
808.760	109.328
808.888	107.815
809.016	109.521
809.144	108.521
809.272	109.445
809.400	109.017
809.528	109.059
809.656	108.319
809.785	108.294
809.913	109.084
810.041	108.815
810.169	108.185
810.297	108.605
810.425	107.588
810.553	107.555
810.681	108.378
810.810	108.050
810.938	109.126
811.066	106.277
811.194	107.504
811.322	108.496
811.450	107.941
811.578	108.824
811.706	108.168
811.835	107.882
811.963	106.059
812.091	107.664
812.219	108.655
812.347	107.487
812.475	108.353
812.603	108.261
812.731	106.034
812.860	108.277
812.988	107.538
813.116	107.252
813.244	107.773
813.372	108.084
813.500	108.437
813.628	108.580
813.756	106.538
813.885	107.975
814.013	107.084
814.141	108.571
814.269	107.160
814.397	107.597
814.525	107.874
814.653	107.588
814.781	106.118
814.910	106.630
815.038	108.118
815.166	108.588
815.294	106.840
815.422	107.454
815.550	107.227
815.678	105.538
815.806	106.622
815.935	106.513
816.063	105.908
816.191	105.950
816.319	107.084
816.447	107.765
816.575	107.076
816.703	106.882
816.831	108.319
816.960	107.924
817.088	106.832
817.216	107.672
817.344	106.546
817.472	108.311
817.600	106.445
817.728	106.176
817.856	107.042
817.985	105.655
818.113	106.824
818.241	106.218
818.369	106.269
818.497	107.555
818.625	106.529
818.753	106.277
818.881	106.361
819.010	106.849
819.138	106.235
819.266	105.697
819.394	106.118
819.522	104.437
819.650	106.387
819.778	106.286
819.906	107.286
820.035	106.975
820.163	106.403
820.291	104.597
820.419	105.613
820.547	107.050
820.675	103.605
820.803	106.697
820.931	106.992
821.060	104.773
821.188	106.168
821.316	105.244
821.444	106.101
821.572	105.950
821.700	106.353
821.828	106.328
821.956	106.723
822.085	105.420
822.213	105.647
822.341	105.891
822.469	104.992
822.597	105.924
822.725	105.899
822.853	105.899
822.981	105.664
823.110	106.000
823.238	104.630
823.366	106.218
823.494	105.042
823.622	104.899
823.750	105.042
823.878	104.311
824.006	106.235
824.135	106.664
824.263	106.765
824.391	105.076
824.519	105.899
824.647	105.891
824.775	106.160
824.903	106.210
825.031	106.067
825.160	106.294
825.288	105.395
825.416	106.454
825.544	105.605
825.672	106.613
825.800	105.622
825.928	105.840
826.056	105.983
826.185	105.017
826.313	105.605
826.441	105.454
826.569	105.227
826.697	105.429
826.825	104.689
826.953	105.479
827.081	104.227
827.210	105.277
827.338	105.059
827.466	104.815
827.594	106.000
827.722	105.672
827.850	105.916
827.978	104.975
828.106	106.000
828.235	106.210
828.363	105.437
828.491	105.101
828.619	104.966
828.747	105.412
828.875	105.008
829.003	105.555
829.131	106.244
829.260	105.773
829.388	105.429
829.516	105.613
829.644	105.403
829.772	105.966
829.900	105.235
830.028	105.782
830.156	105.387
830.285	105.832
830.413	105.218
830.541	105.681
830.669	105.664
830.797	105.034
830.925	104.681
831.053	104.050
831.181	105.059
831.310	105.286
831.438	105.471
831.566	105.336
831.694	104.773
831.822	103.798
831.950	104.966
832.078	104.782
832.206	105.101
832.335	104.882
832.463	105.143
832.591	104.647
832.719	104.655
832.847	104.697
832.975	104.235
833.103	105.471
833.231	105.042
833.360	105.513
833.488	104.563
833.616	104.571
833.744	104.403
833.872	105.218
834.000	105.588
834.128	105.378
834.256	104.681
834.385	103.832
834.513	105.336
834.641	103.319
834.769	103.975
834.897	105.454
835.025	103.336
835.153	103.134
835.281	103.874
835.410	105.227
835.538	104.672
835.666	105.353
835.794	104.345
835.922	104.941
836.050	104.311
836.178	104.504
836.306	104.714
836.435	104.176
836.563	104.193
836.691	104.874
836.819	105.261
836.947	104.109
837.075	104.429
837.203	103.227
837.331	104.773
837.460	105.143
837.588	104.118
837.716	104.118
837.844	104.487
837.972	104.471
838.100	104.950
838.228	104.412
838.356	103.950
838.485	102.605
838.613	103.975
838.741	104.941
838.869	104.647
838.997	105.714
839.125	103.218
839.253	103.580
839.381	104.773
839.510	104.202
839.638	103.555
839.766	103.966
839.894	104.084
840.022	104.605
840.150	104.958
840.278	103.227
840.406	104.311
840.535	104.714
840.663	103.000
840.791	103.445
840.919	104.168
841.047	103.076
841.175	103.933
841.303	104.151
841.431	103.882
841.560	104.555
841.688	103.664
841.816	104.160
841.944	103.353
842.072	103.252
842.200	104.109
842.328	104.899
842.456	103.958
842.585	104.126
842.713	104.126
842.841	103.983
842.969	104.479
843.097	104.303
843.225	103.000
843.353	103.630
843.481	103.571
843.610	103.765
843.738	103.908
843.866	103.613
