70-130-unpol_at_679.99nm_cut_at_1283.50Y_01.dat
24.01.2024
11:35:21
cut middle at Y: 1283.50
top cursor: 1343 down cursor: 1224 mean of: 119 lines , 2560 datapoints
wavelength(nm)	intensity[arb. units]
515.994	1271.437
516.122	1195.084
516.250	1176.176
516.378	1171.000
516.506	1166.513
516.635	1189.613
516.763	1177.429
516.891	1191.630
517.019	1193.639
517.147	1193.630
517.275	1195.504
517.403	1205.269
517.531	1186.067
517.660	1189.471
517.788	1193.277
517.916	1212.849
518.044	1191.748
518.172	1191.866
518.300	1197.277
518.428	1193.840
518.556	1199.160
518.685	1206.597
518.813	1210.689
518.941	1215.782
519.069	1211.538
519.197	1208.361
519.325	1217.395
519.453	1213.496
519.581	1233.319
519.710	1217.521
519.838	1232.504
519.966	1229.387
520.094	1229.471
520.222	1236.118
520.350	1244.924
520.478	1256.345
520.606	1256.840
520.735	1255.336
520.863	1260.992
520.991	1270.622
521.119	1266.731
521.247	1270.815
521.375	1282.202
521.503	1291.479
521.631	1280.807
521.760	1283.605
521.888	1293.723
522.016	1299.840
522.144	1293.429
522.272	1308.353
522.400	1312.109
522.528	1317.874
522.656	1306.345
522.785	1311.025
522.913	1334.899
523.041	1319.739
523.169	1315.513
523.297	1329.924
523.425	1326.454
523.553	1330.714
523.681	1321.748
523.810	1331.487
523.938	1344.378
524.066	1332.134
524.194	1341.807
524.322	1333.899
524.450	1330.403
524.578	1329.908
524.706	1345.866
524.835	1329.975
524.963	1343.605
525.091	1334.538
525.219	1338.244
525.347	1335.143
525.475	1342.294
525.603	1341.151
525.731	1346.269
525.860	1351.160
525.988	1338.210
526.116	1336.420
526.244	1340.933
526.372	1343.412
526.500	1351.731
526.628	1359.303
526.756	1341.176
526.885	1349.412
527.013	1342.950
527.141	1357.244
527.269	1359.798
527.397	1362.529
527.525	1357.042
527.653	1366.454
527.781	1348.933
527.910	1372.672
528.038	1378.773
528.166	1378.387
528.294	1375.244
528.422	1369.092
528.550	1377.765
528.678	1370.521
528.806	1391.261
528.935	1387.429
529.063	1403.739
529.191	1386.815
529.319	1408.891
529.447	1402.143
529.575	1399.092
529.703	1410.639
529.831	1416.832
529.960	1414.899
530.088	1407.874
530.216	1420.059
530.344	1418.361
530.472	1427.235
530.600	1427.697
530.728	1428.000
530.856	1414.412
530.985	1427.218
531.113	1419.513
531.241	1433.403
531.369	1434.084
531.497	1422.588
531.625	1436.908
531.753	1421.723
531.881	1438.160
532.010	1434.891
532.138	1419.370
532.266	1440.303
532.394	1431.714
532.522	1424.126
532.650	1444.857
532.778	1439.336
532.906	1428.387
533.035	1437.622
533.163	1428.445
533.291	1432.824
533.419	1419.252
533.547	1423.739
533.675	1421.042
533.803	1418.210
533.931	1441.454
534.060	1423.933
534.188	1428.689
534.316	1446.630
534.444	1426.017
534.572	1439.252
534.700	1441.739
534.828	1436.639
534.956	1460.504
535.085	1451.790
535.213	1454.277
535.341	1466.176
535.469	1455.588
535.597	1471.563
535.725	1469.714
535.853	1472.765
535.981	1477.345
536.110	1492.555
536.238	1482.983
536.366	1488.782
536.494	1479.336
536.622	1506.118
536.750	1492.546
536.878	1516.933
537.006	1515.597
537.135	1512.958
537.263	1507.891
537.391	1521.353
537.519	1525.387
537.647	1529.866
537.775	1529.882
537.903	1529.076
538.031	1532.714
538.160	1539.916
538.288	1544.798
538.416	1548.832
538.544	1541.824
538.672	1552.731
538.800	1564.286
538.928	1559.286
539.056	1569.294
539.185	1561.681
539.313	1552.109
539.441	1560.185
539.569	1561.437
539.697	1566.462
539.825	1584.513
539.953	1564.782
540.081	1547.025
540.210	1577.958
540.338	1572.597
540.466	1570.361
540.594	1570.782
540.722	1560.538
540.850	1577.790
540.978	1574.723
541.106	1580.849
541.235	1594.420
541.363	1572.353
541.491	1587.958
541.619	1573.294
541.747	1578.773
541.875	1581.857
542.003	1584.580
542.131	1582.681
542.260	1597.723
542.388	1600.017
542.516	1589.546
542.644	1598.252
542.772	1602.160
542.900	1592.983
543.028	1606.000
543.156	1607.597
543.285	1601.420
543.413	1593.345
543.541	1605.529
543.669	1620.420
543.797	1608.336
543.925	1608.790
544.053	1623.345
544.181	1608.471
544.310	1614.471
544.438	1610.891
544.566	1608.109
544.694	1631.067
544.822	1627.782
544.950	1628.008
545.078	1619.504
545.206	1619.336
545.335	1640.487
545.463	1612.395
545.591	1619.815
545.719	1622.529
545.847	1630.479
545.975	1632.681
546.103	1617.588
546.231	1634.731
546.360	1629.664
546.488	1643.017
546.616	1632.202
546.744	1640.546
546.872	1641.664
547.000	1641.773
547.128	1657.866
547.256	1643.092
547.385	1636.118
547.513	1646.034
547.641	1662.235
547.769	1659.303
547.897	1657.479
548.025	1649.521
548.153	1659.639
548.281	1643.513
548.410	1655.605
548.538	1664.429
548.666	1658.605
548.794	1661.504
548.922	1657.025
549.050	1673.765
549.178	1657.059
549.306	1684.118
549.435	1688.899
549.563	1663.790
549.691	1658.832
549.819	1686.193
549.947	1687.613
550.075	1680.361
550.203	1665.176
550.331	1676.756
550.460	1675.941
550.588	1677.815
550.716	1694.454
550.844	1665.891
550.972	1661.126
551.100	1672.916
551.228	1678.857
551.356	1654.899
551.485	1674.840
551.613	1658.151
551.741	1649.748
551.869	1655.294
551.997	1653.697
552.125	1656.067
552.253	1654.445
552.381	1646.361
552.510	1649.681
552.638	1643.992
552.766	1656.538
552.894	1632.891
553.022	1647.538
553.150	1638.277
553.278	1638.916
553.406	1651.261
553.535	1640.504
553.663	1634.479
553.791	1655.697
553.919	1626.294
554.047	1647.084
554.175	1639.429
554.303	1628.840
554.431	1635.286
554.560	1639.025
554.688	1638.227
554.816	1641.513
554.944	1656.504
555.072	1640.933
555.200	1659.479
555.328	1642.504
555.456	1664.992
555.585	1650.706
555.713	1650.034
555.841	1667.042
555.969	1648.571
556.097	1676.353
556.225	1664.866
556.353	1672.319
556.481	1665.605
556.610	1683.706
556.738	1687.101
556.866	1688.151
556.994	1675.588
557.122	1675.504
557.250	1695.084
557.378	1698.126
557.506	1693.916
557.635	1697.261
557.763	1684.160
557.891	1710.605
558.019	1702.832
558.147	1709.328
558.275	1708.513
558.403	1713.655
558.531	1714.252
558.660	1709.412
558.788	1710.908
558.916	1718.134
559.044	1709.622
559.172	1718.109
559.300	1734.059
559.428	1715.807
559.556	1731.168
559.685	1736.101
559.813	1721.042
559.941	1719.378
560.069	1734.613
560.197	1733.555
560.325	1738.571
560.453	1729.176
560.581	1736.042
560.710	1738.118
560.838	1730.639
560.966	1723.908
561.094	1741.622
561.222	1724.546
561.350	1729.412
561.478	1735.529
561.606	1725.462
561.735	1728.277
561.863	1721.773
561.991	1718.731
562.119	1721.050
562.247	1722.370
562.375	1740.672
562.503	1717.311
562.631	1719.487
562.760	1726.454
562.888	1720.109
563.016	1734.303
563.144	1721.496
563.272	1719.689
563.400	1714.966
563.528	1709.765
563.656	1728.294
563.785	1729.672
563.913	1724.723
564.041	1709.244
564.169	1726.487
564.297	1724.252
564.425	1719.227
564.553	1740.790
564.681	1752.319
564.810	1729.336
564.938	1735.050
565.066	1724.798
565.194	1747.109
565.322	1746.311
565.450	1744.815
565.578	1756.403
565.706	1740.966
565.835	1755.571
565.963	1743.311
566.091	1759.622
566.219	1763.714
566.347	1765.496
566.475	1765.941
566.603	1766.672
566.731	1772.504
566.860	1785.672
566.988	1771.840
567.116	1790.782
567.244	1791.950
567.372	1796.832
567.500	1805.588
567.628	1798.891
567.756	1809.983
567.885	1810.748
568.013	1812.756
568.141	1830.723
568.269	1820.454
568.397	1813.067
568.525	1813.361
568.653	1829.218
568.781	1832.773
568.910	1851.613
569.038	1840.874
569.166	1840.891
569.294	1845.445
569.422	1858.908
569.550	1850.765
569.678	1868.378
569.806	1866.798
569.935	1866.739
570.063	1881.345
570.191	1887.160
570.319	1895.941
570.447	1880.025
570.575	1889.059
570.703	1905.672
570.831	1900.101
570.960	1897.950
571.088	1904.471
571.216	1901.647
571.344	1902.008
571.472	1910.958
571.600	1920.244
571.728	1922.613
571.856	1906.118
571.985	1932.672
572.113	1937.773
572.241	1944.958
572.369	1951.849
572.497	1939.403
572.625	1943.109
572.753	1935.134
572.881	1965.891
573.010	1959.261
573.138	1981.261
573.266	1967.429
573.394	1969.723
573.522	1963.546
573.650	1983.588
573.778	1967.092
573.906	1973.824
574.035	1981.445
574.163	1983.555
574.291	1981.218
574.419	1980.050
574.547	1982.294
574.675	2000.025
574.803	1997.445
574.931	1976.664
575.060	2004.832
575.188	1986.773
575.316	2000.790
575.444	1984.059
575.572	1997.176
575.700	1999.521
575.828	2003.983
575.956	2015.210
576.085	1997.714
576.213	2017.630
576.341	1989.218
576.469	2010.496
576.597	2006.277
576.725	2008.370
576.853	2002.437
576.981	2002.319
577.110	2004.008
577.238	2025.042
577.366	2002.286
577.494	1998.193
577.622	2001.437
577.750	2002.252
577.878	2012.655
578.006	2037.370
578.135	2015.118
578.263	2013.613
578.391	2020.076
578.519	2019.387
578.647	2035.639
578.775	2016.370
578.903	2005.832
579.031	2025.798
579.160	2017.798
579.288	2016.151
579.416	2015.782
579.544	2043.697
579.672	2020.387
579.800	2021.395
579.928	2016.983
580.056	2033.445
580.185	2037.748
580.313	2043.261
580.441	2046.538
580.569	2047.647
580.697	2029.807
580.825	2058.681
580.953	2068.546
581.081	2076.076
581.210	2060.782
581.338	2081.370
581.466	2068.613
581.594	2100.605
581.722	2080.773
581.850	2089.042
581.978	2089.597
582.106	2087.462
582.235	2100.050
582.363	2086.076
582.491	2105.807
582.619	2119.563
582.747	2122.832
582.875	2127.210
583.003	2137.126
583.131	2146.840
583.260	2139.891
583.388	2166.210
583.516	2184.706
583.644	2161.403
583.772	2180.874
583.900	2196.714
584.028	2195.479
584.156	2199.193
584.285	2212.723
584.413	2201.025
584.541	2215.882
584.669	2226.429
584.797	2226.277
584.925	2241.042
585.053	2258.210
585.181	2248.605
585.310	2260.504
585.438	2252.832
585.566	2258.664
585.694	2283.420
585.822	2289.294
585.950	2275.966
586.078	2288.798
586.206	2298.899
586.335	2321.773
586.463	2337.891
586.591	2331.714
586.719	2338.882
586.847	2342.689
586.975	2341.067
587.103	2358.387
587.231	2330.193
587.360	2369.311
587.488	2353.807
587.616	2355.336
587.744	2380.252
587.872	2368.916
588.000	2371.546
588.128	2373.101
588.256	2366.479
588.385	2373.437
588.513	2392.555
588.641	2389.092
588.769	2401.109
588.897	2395.185
589.025	2385.000
589.153	2395.849
589.281	2404.723
589.410	2411.605
589.538	2408.151
589.666	2433.109
589.794	2424.168
589.922	2427.143
590.050	2450.840
590.178	2400.605
590.306	2425.630
590.435	2443.580
590.563	2432.689
590.691	2433.168
590.819	2449.588
590.947	2457.832
591.075	2449.185
591.203	2478.613
591.331	2444.908
591.460	2452.849
591.588	2473.555
591.716	2477.193
591.844	2476.706
591.972	2491.160
592.100	2468.891
592.228	2475.286
592.356	2491.630
592.485	2490.378
592.613	2484.765
592.741	2509.731
592.869	2494.092
592.997	2517.076
593.125	2515.697
593.253	2527.017
593.381	2546.815
593.510	2526.555
593.638	2530.437
593.766	2549.017
593.894	2534.782
594.022	2557.412
594.150	2555.143
594.278	2574.193
594.406	2574.521
594.535	2572.109
594.663	2590.134
594.791	2587.336
594.919	2588.395
595.047	2601.084
595.175	2621.109
595.303	2612.000
595.431	2613.017
595.560	2654.605
595.688	2630.487
595.816	2652.782
595.944	2629.168
596.072	2642.975
596.200	2653.420
596.328	2640.445
596.456	2648.210
596.585	2651.412
596.713	2665.681
596.841	2685.798
596.969	2683.546
597.097	2701.378
597.225	2699.420
597.353	2715.605
597.481	2724.731
597.610	2718.143
597.738	2745.563
597.866	2715.471
597.994	2739.731
598.122	2780.958
598.250	2767.042
598.378	2752.311
598.506	2741.185
598.635	2774.790
598.763	2766.891
598.891	2810.933
599.019	2794.689
599.147	2808.000
599.275	2789.134
599.403	2841.319
599.531	2821.597
599.660	2820.891
599.788	2820.437
599.916	2843.538
600.044	2879.454
600.172	2838.319
600.300	2848.227
600.428	2857.739
600.556	2866.571
600.685	2931.445
600.813	2880.193
600.941	2890.731
601.069	2902.471
601.197	2904.126
601.325	2916.824
601.453	2887.202
601.581	2926.437
601.710	2951.210
601.838	2951.899
601.966	3018.412
602.094	3016.681
602.222	2991.924
602.350	2968.899
602.478	2977.378
602.606	3031.571
602.735	2968.059
602.863	3031.555
602.991	3023.008
603.119	3018.874
603.247	3033.008
603.375	3043.361
603.503	3054.807
603.631	3077.412
603.760	3080.025
603.888	3096.084
604.016	3097.160
604.144	3095.672
604.272	3116.244
604.400	3125.748
604.528	3146.286
604.656	3138.462
604.785	3157.160
604.913	3207.824
605.041	3137.756
605.169	3191.319
605.297	3189.210
605.425	3180.840
605.553	3218.361
605.681	3192.950
605.810	3238.084
605.938	3240.193
606.066	3207.765
606.194	3252.832
606.322	3250.697
606.450	3254.185
606.578	3248.050
606.706	3275.286
606.835	3271.294
606.963	3322.849
607.091	3328.218
607.219	3289.672
607.347	3287.588
607.475	3312.269
607.603	3302.933
607.731	3266.496
607.860	3319.218
607.988	3301.504
608.116	3363.983
608.244	3315.538
608.372	3349.681
608.500	3349.193
608.628	3305.983
608.756	3327.269
608.885	3391.311
609.013	3319.092
609.141	3319.992
609.269	3312.546
609.397	3327.891
609.525	3333.630
609.653	3373.689
609.781	3342.958
609.910	3367.092
610.038	3462.647
610.166	3369.286
610.294	3350.286
610.422	3355.294
610.550	3350.017
610.678	3364.513
610.806	3374.118
610.935	3356.143
611.063	3369.706
611.191	3399.857
611.319	3392.387
611.447	3367.471
611.575	3376.924
611.703	3358.798
611.831	3397.529
611.960	3393.387
612.088	3387.353
612.216	3393.462
612.344	3405.563
612.472	3416.555
612.600	3418.437
612.728	3412.479
612.856	3395.824
612.985	3391.597
613.113	3427.756
613.241	3432.613
613.369	3395.412
613.497	3422.765
613.625	3411.294
613.753	3442.613
613.881	3443.630
614.010	3420.613
614.138	3456.605
614.266	3446.529
614.394	3481.899
614.522	3479.513
614.650	3466.571
614.778	3476.874
614.906	3458.521
615.035	3489.588
615.163	3470.933
615.291	3537.622
615.419	3488.748
615.547	3482.176
615.675	3511.941
615.803	3553.042
615.931	3515.807
616.060	3510.244
616.188	3558.521
616.316	3547.857
616.444	3498.857
616.572	3565.664
616.700	3576.176
616.828	3567.798
616.956	3594.319
617.085	3564.529
617.213	3566.487
617.341	3621.908
617.469	3684.319
617.597	3579.975
617.725	3596.050
617.853	3601.815
617.981	3624.580
618.110	3652.630
618.238	3658.739
618.366	3628.555
618.494	3633.697
618.622	3663.588
618.750	3730.311
618.878	3718.193
619.006	3699.244
619.135	3741.370
619.263	3712.849
619.391	3738.210
619.519	3729.118
619.647	3791.101
619.775	3764.227
619.903	3781.899
620.031	3753.303
620.160	3772.218
620.288	3793.294
620.416	3797.824
620.544	3806.866
620.672	3825.067
620.800	3846.269
620.928	3835.328
621.056	3911.697
621.185	3866.336
621.313	3835.378
621.441	3864.941
621.569	3864.252
621.697	3895.681
621.825	3924.697
621.953	3898.261
622.081	3928.454
622.210	3900.084
622.338	3944.303
622.466	3964.437
622.594	3955.765
622.722	3943.714
622.850	3980.345
622.978	4010.588
623.106	4020.454
623.235	3985.824
623.363	4003.445
623.491	3998.109
623.619	4046.118
623.747	4020.235
623.875	4050.176
624.003	4021.714
624.131	4044.630
624.260	4065.933
624.388	4025.168
624.516	4043.286
624.644	4056.874
624.772	4054.017
624.900	4035.975
625.028	4075.445
625.156	4056.084
625.285	4103.059
625.413	4112.597
625.541	4097.613
625.669	4128.899
625.797	4102.882
625.925	4115.168
626.053	4119.916
626.181	4091.857
626.310	4230.034
626.438	4113.176
626.566	4127.160
626.694	4124.739
626.822	4122.244
626.950	4170.689
627.078	4120.496
627.206	4153.605
627.335	4152.437
627.463	4141.193
627.591	4167.975
627.719	4206.000
627.847	4170.950
627.975	4169.118
628.103	4193.529
628.231	4196.168
628.360	4166.244
628.488	4170.076
628.616	4161.748
628.744	4175.277
628.872	4206.479
629.000	4205.059
629.128	4214.941
629.256	4182.975
629.385	4201.286
629.513	4190.176
629.641	4216.319
629.769	4258.319
629.897	4239.832
630.025	4197.731
630.153	4246.807
630.281	4226.286
630.410	4217.689
630.538	4215.782
630.666	4246.916
630.794	4233.992
630.922	4264.782
631.050	4226.454
631.178	4233.857
631.306	4232.471
631.435	4220.445
631.563	4240.361
631.691	4283.370
631.819	4321.748
631.947	4240.176
632.075	4221.664
632.203	4293.765
632.331	4249.739
632.460	4251.647
632.588	4276.176
632.716	4234.983
632.844	4323.630
632.972	4223.975
633.100	4234.597
633.228	4258.252
633.356	4252.345
633.485	4262.739
633.613	4285.269
633.741	4270.672
633.869	4271.445
633.997	4272.824
634.125	4297.218
634.253	4277.202
634.381	4279.655
634.510	4301.345
634.638	4284.639
634.766	4341.092
634.894	4293.798
635.022	4273.773
635.150	4277.025
635.278	4304.756
635.406	4275.000
635.535	4270.319
635.663	4308.252
635.791	4241.798
635.919	4261.471
636.047	4267.429
636.175	4248.807
636.303	4257.891
636.431	4274.059
636.560	4267.924
636.688	4257.597
636.816	4263.958
636.944	4255.319
637.072	4287.084
637.200	4271.319
637.328	4275.832
637.456	4249.748
637.585	4255.975
637.713	4259.723
637.841	4263.723
637.969	4274.487
638.097	4253.092
638.225	4285.916
638.353	4266.387
638.481	4258.252
638.610	4267.891
638.738	4273.000
638.866	4268.378
638.994	4282.840
639.122	4256.975
639.250	4271.067
639.378	4309.773
639.506	4266.941
639.635	4311.202
639.763	4241.218
639.891	4306.185
640.019	4283.622
640.147	4321.050
640.275	4273.546
640.403	4282.966
640.531	4333.294
640.660	4278.210
640.788	4374.563
640.916	4303.782
641.044	4332.134
641.172	4288.630
641.300	4316.462
641.428	4301.487
641.556	4330.563
641.685	4316.160
641.813	4320.345
641.941	4330.479
642.069	4335.269
642.197	4366.151
642.325	4354.395
642.453	4313.496
642.581	4429.555
642.710	4303.613
642.838	4353.521
642.966	4326.008
643.094	4340.008
643.222	4335.403
643.350	4340.462
643.478	4371.227
643.606	4353.244
643.735	4296.832
643.863	4343.420
643.991	4364.345
644.119	4349.756
644.247	4353.479
644.375	4354.429
644.503	4353.076
644.631	4387.958
644.760	4380.849
644.888	4371.168
645.016	4384.420
645.144	4369.790
645.272	4323.882
645.400	4375.706
645.528	4374.134
645.656	4362.050
645.785	4374.916
645.913	4425.420
646.041	4377.261
646.169	4417.387
646.297	4344.235
646.425	4391.513
646.553	4353.832
646.681	4327.866
646.810	4376.731
646.938	4308.916
647.066	4295.874
647.194	4385.134
647.322	4308.672
647.450	4332.286
647.578	4331.092
647.706	4313.975
647.835	4300.202
647.963	4365.580
648.091	4278.950
648.219	4324.319
648.347	4318.118
648.475	4268.109
648.603	4285.067
648.731	4251.748
648.860	4277.034
648.988	4232.983
649.116	4240.681
649.244	4226.471
649.372	4244.765
649.500	4225.134
649.628	4247.471
649.756	4207.908
649.885	4205.504
650.013	4165.109
650.141	4182.723
650.269	4130.731
650.397	4144.672
650.525	4106.202
650.653	4186.714
650.781	4133.975
650.910	4131.429
651.038	4074.303
651.166	4066.092
651.294	4075.185
651.422	4070.311
651.550	4028.916
651.678	4049.025
651.806	4026.487
651.935	4029.202
652.063	4029.655
652.191	4009.538
652.319	3972.958
652.447	3990.151
652.575	3946.975
652.703	3985.395
652.831	3993.529
652.960	3955.983
653.088	3982.798
653.216	3953.571
653.344	3958.546
653.472	3938.697
653.600	3910.639
653.728	3897.983
653.856	3920.361
653.985	3890.168
654.113	3860.664
654.241	3885.580
654.369	3866.714
654.497	3883.008
654.625	3873.378
654.753	3860.563
654.881	3850.479
655.010	3911.622
655.138	3812.908
655.266	3829.193
655.394	3831.101
655.522	3844.605
655.650	3769.336
655.778	3858.000
655.906	3773.739
656.035	3764.731
656.163	3767.345
656.291	3745.714
656.419	3795.176
656.547	3739.521
656.675	3755.210
656.803	3754.008
656.931	3707.840
657.060	3737.891
657.188	3731.311
657.316	3738.613
657.444	3698.966
657.572	3706.319
657.700	3694.042
657.828	3678.042
657.956	3709.664
658.085	3752.773
658.213	3719.739
658.341	3704.899
658.469	3694.395
658.597	3741.605
658.725	3680.866
658.853	3659.916
658.981	3643.857
659.110	3690.336
659.238	3696.546
659.366	3669.555
659.494	3636.042
659.622	3613.361
659.750	3610.261
659.878	3599.454
660.006	3608.151
660.135	3575.580
660.263	3582.513
660.391	3656.504
660.519	3638.092
660.647	3564.899
660.775	3560.084
660.903	3532.017
661.031	3534.706
661.160	3551.958
661.288	3550.504
661.416	3556.613
661.544	3509.479
661.672	3510.429
661.800	3505.723
661.928	3505.655
662.056	3546.445
662.185	3457.496
662.313	3480.328
662.441	3543.286
662.569	3484.092
662.697	3464.496
662.825	3463.731
662.953	3433.067
663.081	3414.622
663.210	3412.235
663.338	3388.580
663.466	3409.294
663.594	3428.664
663.722	3392.891
663.850	3409.042
663.978	3376.714
664.106	3434.882
664.235	3356.462
664.363	3399.160
664.491	3379.227
664.619	3350.765
664.747	3343.193
664.875	3333.613
665.003	3347.597
665.131	3314.513
665.260	3350.824
665.388	3311.924
665.516	3284.286
665.644	3310.765
665.772	3300.067
665.900	3304.000
666.028	3276.017
666.156	3291.546
666.285	3261.681
666.413	3281.000
666.541	3273.739
666.669	3242.983
666.797	3216.252
666.925	3229.210
667.053	3270.403
667.181	3193.773
667.310	3235.008
667.438	3210.773
667.566	3208.580
667.694	3217.429
667.822	3210.202
667.950	3177.908
668.078	3165.160
668.206	3169.807
668.335	3120.782
668.463	3154.513
668.591	3141.193
668.719	3160.042
668.847	3132.697
668.975	3110.647
669.103	3112.840
669.231	3130.807
669.360	3080.941
669.488	3090.420
669.616	3057.092
669.744	3120.160
669.872	3052.731
670.000	3058.244
670.128	3035.933
670.256	3009.748
670.385	3045.538
670.513	3020.403
670.641	3047.025
670.769	3047.294
670.897	2988.630
671.025	3009.412
671.153	2998.782
671.281	3001.672
671.410	3029.924
671.538	2984.454
671.666	2999.471
671.794	2997.798
671.922	2968.782
672.050	2998.328
672.178	2918.118
672.306	2933.336
672.435	2933.824
672.563	2920.076
672.691	2961.891
672.819	2916.605
672.947	2889.437
673.075	2874.437
673.203	2900.975
673.331	2838.353
673.460	2858.101
673.588	2859.479
673.716	2871.286
673.844	2848.815
673.972	2832.437
674.100	2821.126
674.228	2801.513
674.356	2789.546
674.485	2794.336
674.613	2783.765
674.741	2775.294
674.869	2742.706
674.997	2764.101
675.125	2750.958
675.253	2705.975
675.381	2727.966
675.510	2708.832
675.638	2714.244
675.766	2671.580
675.894	2733.176
676.022	2670.277
676.150	2667.252
676.278	2675.529
676.406	2662.218
676.535	2654.546
676.663	2649.555
676.791	2618.975
676.919	2606.479
677.047	2580.983
677.175	2588.588
677.303	2626.546
677.431	2573.092
677.560	2558.521
677.688	2552.597
677.816	2557.252
677.944	2524.496
678.072	2511.042
678.200	2506.513
678.328	2485.664
678.456	2473.210
678.585	2481.655
678.713	2460.059
678.841	2451.966
678.969	2453.739
679.097	2448.882
679.225	2432.639
679.353	2442.706
679.481	2408.613
679.610	2419.613
679.738	2399.513
679.866	2404.353
679.994	2383.689
680.122	2374.084
680.250	2351.471
680.378	2371.067
680.506	2338.824
680.635	2338.546
680.763	2342.908
680.891	2315.613
681.019	2325.294
681.147	2313.445
681.275	2287.101
681.403	2266.504
681.531	2283.412
681.660	2274.202
681.788	2264.479
681.916	2248.655
682.044	2258.672
682.172	2240.076
682.300	2214.941
682.428	2226.622
682.556	2203.723
682.685	2208.277
682.813	2211.445
682.941	2197.050
683.069	2175.143
683.197	2202.563
683.325	2161.765
683.453	2160.134
683.581	2154.739
683.710	2140.101
683.838	2148.353
683.966	2135.168
684.094	2125.059
684.222	2140.336
684.350	2116.924
684.478	2119.034
684.606	2119.034
684.735	2101.866
684.863	2097.857
684.991	2080.664
685.119	2064.790
685.247	2078.832
685.375	2062.261
685.503	2078.437
685.631	2075.336
685.760	2037.496
685.888	2032.202
686.016	2027.664
686.144	2042.185
686.272	2014.597
686.400	2034.084
686.528	1997.353
686.656	1996.092
686.785	1991.815
686.913	2002.933
687.041	1974.647
687.169	1974.025
687.297	1975.303
687.425	1960.084
687.553	1959.336
687.681	1962.185
687.810	1947.941
687.938	1942.092
688.066	1946.286
688.194	1934.429
688.322	1930.983
688.450	1921.647
688.578	1927.092
688.706	1917.176
688.835	1915.361
688.963	1908.462
689.091	1904.008
689.219	1883.185
689.347	1877.782
689.475	1883.748
689.603	1855.983
689.731	1865.218
689.860	1860.008
689.988	1864.193
690.116	1859.487
690.244	1855.176
690.372	1842.311
690.500	1834.328
690.628	1836.630
690.756	1824.235
690.885	1816.966
691.013	1810.412
691.141	1816.924
691.269	1818.076
691.397	1806.361
691.525	1802.782
691.653	1797.773
691.781	1791.857
691.910	1786.504
692.038	1782.395
692.166	1764.176
692.294	1769.765
692.422	1743.790
692.550	1764.697
692.678	1751.605
692.806	1738.723
692.935	1739.294
693.063	1714.176
693.191	1721.706
693.319	1725.866
693.447	1709.571
693.575	1708.286
693.703	1703.067
693.831	1703.647
693.960	1688.815
694.088	1679.479
694.216	1669.639
694.344	1668.571
694.472	1677.639
694.600	1659.126
694.728	1649.471
694.856	1648.840
694.985	1642.782
695.113	1639.924
695.241	1625.412
695.369	1620.529
695.497	1616.916
695.625	1618.866
695.753	1609.193
695.881	1585.168
696.010	1599.630
696.138	1583.849
696.266	1573.546
696.394	1574.420
696.522	1562.622
696.650	1551.613
696.778	1554.378
696.906	1553.731
697.035	1543.857
697.163	1522.832
697.291	1526.025
697.419	1521.311
697.547	1505.445
697.675	1519.908
697.803	1505.958
697.931	1496.924
698.060	1493.294
698.188	1475.874
698.316	1486.790
698.444	1472.311
698.572	1458.387
698.700	1467.983
698.828	1462.193
698.956	1455.681
699.085	1446.504
699.213	1430.218
699.341	1422.756
699.469	1417.723
699.597	1416.294
699.725	1418.269
699.853	1393.597
699.981	1408.908
700.110	1386.555
700.238	1392.966
700.366	1373.084
700.494	1373.882
700.622	1382.874
700.750	1352.807
700.878	1369.807
701.006	1345.630
701.135	1364.109
701.263	1350.303
701.391	1321.479
701.519	1344.513
701.647	1329.655
701.775	1333.714
701.903	1316.563
702.031	1314.118
702.160	1319.008
702.288	1302.798
702.416	1306.244
702.544	1297.336
702.672	1277.681
702.800	1284.731
702.928	1277.210
703.056	1271.143
703.185	1268.790
703.313	1269.504
703.441	1258.084
703.569	1252.000
703.697	1269.950
703.825	1249.193
703.953	1252.756
704.081	1241.034
704.210	1240.244
704.338	1232.782
704.466	1223.697
704.594	1222.361
704.722	1222.143
704.850	1209.983
704.978	1208.034
705.106	1209.874
705.235	1190.647
705.363	1193.109
705.491	1192.286
705.619	1184.681
705.747	1177.160
705.875	1193.134
706.003	1164.210
706.131	1174.975
706.260	1154.168
706.388	1147.807
706.516	1151.042
706.644	1149.597
706.772	1143.403
706.900	1121.563
707.028	1133.958
707.156	1124.361
707.285	1121.168
707.413	1113.538
707.541	1108.563
707.669	1097.462
707.797	1103.345
707.925	1096.529
708.053	1090.563
708.181	1087.227
708.310	1080.252
708.438	1077.143
708.566	1073.882
708.694	1076.941
708.822	1068.647
708.950	1064.319
709.078	1047.916
709.206	1048.176
709.335	1049.697
709.463	1040.832
709.591	1036.109
709.719	1030.790
709.847	1020.303
709.975	1021.286
710.103	1013.580
710.231	1015.176
710.360	1005.538
710.488	991.563
710.616	992.706
710.744	991.622
710.872	981.992
711.000	984.739
711.128	971.555
711.256	967.992
711.385	968.571
711.513	962.017
711.641	962.361
711.769	951.622
711.897	947.487
712.025	941.496
712.153	945.395
712.281	942.084
712.410	931.059
712.538	943.168
712.666	925.815
712.794	919.689
712.922	918.479
713.050	910.378
713.178	909.496
713.306	912.008
713.435	897.857
713.563	899.471
713.691	901.218
713.819	899.891
713.947	895.739
714.075	885.790
714.203	891.084
714.331	879.513
714.460	874.555
714.588	878.303
714.716	868.697
714.844	865.244
714.972	857.067
715.100	856.765
715.228	854.933
715.356	852.303
715.485	844.429
715.613	846.672
715.741	843.218
715.869	837.361
715.997	830.639
716.125	824.815
716.253	827.756
716.381	830.756
716.510	825.706
716.638	819.412
716.766	811.882
716.894	809.353
717.022	808.983
717.150	793.731
717.278	797.798
717.406	794.328
717.535	800.462
717.663	801.210
717.791	796.798
717.919	785.689
718.047	786.185
718.175	775.160
718.303	781.420
718.431	775.773
718.560	768.908
718.688	762.731
718.816	767.076
718.944	759.807
719.072	770.143
719.200	761.899
719.328	752.059
719.456	752.210
719.585	754.487
719.713	753.403
719.841	738.723
719.969	742.345
720.097	740.370
720.225	732.672
720.353	733.025
720.481	732.681
720.610	731.697
720.738	725.908
720.866	726.689
720.994	724.454
721.122	722.084
721.250	711.924
721.378	708.370
721.506	707.782
721.635	707.353
721.763	704.849
721.891	709.202
722.019	698.025
722.147	692.933
722.275	685.689
722.403	693.050
722.531	684.218
722.660	690.832
722.788	689.261
722.916	685.513
723.044	674.328
723.172	682.706
723.300	669.395
723.428	667.723
723.556	664.303
723.685	661.706
723.813	664.126
723.941	658.387
724.069	656.924
724.197	654.756
724.325	640.891
724.453	640.017
724.581	646.336
724.710	644.908
724.838	639.815
724.966	629.361
725.094	632.538
725.222	621.067
725.350	625.244
725.478	625.882
725.606	629.975
725.735	611.521
725.863	612.857
725.991	606.479
726.119	604.571
726.247	604.689
726.375	610.824
726.503	610.050
726.631	602.588
726.760	594.521
726.888	597.000
727.016	596.958
727.144	589.782
727.272	589.193
727.400	582.748
727.528	577.555
727.656	582.118
727.785	575.034
727.913	575.748
728.041	564.025
728.169	578.403
728.297	567.857
728.425	561.840
728.553	565.059
728.681	557.807
728.810	555.160
728.938	555.941
729.066	555.109
729.194	551.395
729.322	545.924
729.450	541.395
729.578	546.496
729.706	540.891
729.835	541.160
729.963	538.244
730.091	533.185
730.219	530.664
730.347	532.597
730.475	522.807
730.603	530.059
730.731	532.101
730.860	522.975
730.988	516.521
731.116	522.210
731.244	513.731
731.372	509.437
731.500	512.983
731.628	512.025
731.756	504.336
731.885	506.193
732.013	505.697
732.141	500.798
732.269	504.496
732.397	499.807
732.525	494.008
732.653	491.126
732.781	493.731
732.910	492.286
733.038	492.941
733.166	485.605
733.294	486.908
733.422	483.630
733.550	480.958
733.678	482.874
733.806	483.655
733.935	481.924
734.063	476.630
734.191	472.160
734.319	474.378
734.447	472.731
734.575	472.445
734.703	468.782
734.831	464.613
734.960	464.134
735.088	465.975
735.216	462.244
735.344	458.277
735.472	456.630
735.600	458.210
735.728	455.076
735.856	454.193
735.985	447.983
736.113	449.529
736.241	450.647
736.369	445.319
736.497	448.429
736.625	449.059
736.753	448.655
736.881	436.941
737.010	447.664
737.138	437.403
737.266	438.891
737.394	436.555
737.522	436.050
737.650	434.697
737.778	433.588
737.906	430.597
738.035	427.941
738.163	429.992
738.291	423.555
738.419	423.866
738.547	423.311
738.675	425.454
738.803	420.008
738.931	422.529
739.060	420.992
739.188	415.639
739.316	413.924
739.444	413.950
739.572	408.605
739.700	407.983
739.828	413.622
739.956	412.311
740.085	408.252
740.213	408.160
740.341	400.504
740.469	406.840
740.597	402.966
740.725	404.319
740.853	403.824
740.981	398.143
741.110	394.538
741.238	395.723
741.366	395.655
741.494	397.227
741.622	390.387
741.750	392.345
741.878	392.378
742.006	388.706
742.135	388.025
742.263	386.546
742.391	385.504
742.519	389.773
742.647	386.916
742.775	390.134
742.903	382.017
743.031	381.429
743.160	382.924
743.288	379.059
743.416	377.664
743.544	372.429
743.672	376.731
743.800	376.958
743.928	376.807
744.056	374.059
744.185	377.109
744.313	373.059
744.441	373.571
744.569	370.857
744.697	367.008
744.825	371.765
744.953	365.538
745.081	361.017
745.210	364.765
745.338	365.613
745.466	361.563
745.594	366.277
745.722	363.361
745.850	358.202
745.978	358.311
746.106	362.227
746.235	356.874
746.363	352.529
746.491	351.437
746.619	351.235
746.747	353.899
746.875	343.588
747.003	351.958
747.131	349.420
747.260	346.664
747.388	344.252
747.516	349.084
747.644	346.370
747.772	348.361
747.900	342.454
748.028	345.613
748.156	343.126
748.285	345.361
748.413	345.681
748.541	340.891
748.669	337.437
748.797	334.908
748.925	338.227
749.053	339.613
749.181	329.748
749.310	334.639
749.438	331.462
749.566	330.731
749.694	332.933
749.822	332.697
749.950	325.958
750.078	328.261
750.206	329.328
750.335	326.504
750.463	324.076
750.591	321.723
750.719	323.655
750.847	321.597
750.975	318.311
751.103	313.563
751.231	321.933
751.360	319.815
751.488	317.513
751.616	313.059
751.744	318.185
751.872	313.067
752.000	310.672
752.128	312.050
752.256	310.966
752.385	310.471
752.513	307.731
752.641	309.798
752.769	310.597
752.897	303.681
753.025	303.622
753.153	301.294
753.281	304.202
753.410	304.218
753.538	300.546
753.666	300.891
753.794	299.479
753.922	298.563
754.050	298.546
754.178	297.739
754.306	293.882
754.435	298.067
754.563	300.471
754.691	300.059
754.819	294.412
754.947	291.824
755.075	291.655
755.203	290.538
755.331	291.882
755.460	290.118
755.588	287.630
755.716	289.328
755.844	283.277
755.972	282.765
756.100	290.134
756.228	284.613
756.356	284.151
756.485	286.017
756.613	283.529
756.741	281.849
756.869	283.479
756.997	279.874
757.125	283.706
757.253	285.866
757.381	281.824
757.510	280.202
757.638	277.294
757.766	278.101
757.894	273.252
758.022	275.151
758.150	276.580
758.278	275.950
758.406	271.790
758.535	272.294
758.663	274.647
758.791	272.227
758.919	271.471
759.047	272.866
759.175	273.101
759.303	270.630
759.431	271.235
759.560	269.193
759.688	270.849
759.816	271.378
759.944	266.832
760.072	264.924
760.200	263.950
760.328	267.630
760.456	267.613
760.585	264.134
760.713	264.336
760.841	264.731
760.969	264.580
761.097	262.202
761.225	263.244
761.353	260.429
761.481	259.109
761.610	260.773
761.738	261.387
761.866	261.546
761.994	256.924
762.122	255.748
762.250	255.050
762.378	256.210
762.506	255.218
762.635	252.899
762.763	253.445
762.891	258.227
763.019	254.832
763.147	256.471
763.275	254.697
763.403	249.067
763.531	251.109
763.660	252.664
763.788	253.227
763.916	253.613
764.044	249.580
764.172	248.294
764.300	250.462
764.428	244.849
764.556	248.168
764.685	250.261
764.813	245.193
764.941	246.387
765.069	247.874
765.197	246.059
765.325	243.613
765.453	243.697
765.581	244.647
765.710	241.773
765.838	241.664
765.966	245.101
766.094	242.336
766.222	242.176
766.350	240.807
766.478	242.227
766.606	240.269
766.735	241.160
766.863	238.513
766.991	238.429
767.119	244.092
767.247	238.000
767.375	237.714
767.503	239.966
767.631	239.597
767.760	235.109
767.888	236.975
768.016	237.840
768.144	235.118
768.272	234.597
768.400	235.160
768.528	235.294
768.656	231.857
768.785	232.597
768.913	230.429
769.041	234.706
769.169	232.664
769.297	233.487
769.425	232.840
769.553	232.580
769.681	230.487
769.810	234.429
769.938	230.008
770.066	228.555
770.194	231.143
770.322	227.294
770.450	233.210
770.578	227.765
770.706	226.958
770.835	229.521
770.963	230.605
771.091	229.487
771.219	230.496
771.347	227.622
771.475	228.345
771.603	224.916
771.731	224.277
771.860	226.118
771.988	225.462
772.116	225.899
772.244	223.134
772.372	225.025
772.500	224.748
772.628	225.261
772.756	223.580
772.885	222.042
773.013	221.084
773.141	218.563
773.269	222.437
773.397	223.244
773.525	220.294
773.653	220.773
773.781	222.496
773.910	221.521
774.038	221.017
774.166	221.235
774.294	219.370
774.422	219.487
774.550	219.857
774.678	217.798
774.806	219.017
774.935	219.042
775.063	217.277
775.191	217.807
775.319	216.303
775.447	219.126
775.575	218.269
775.703	213.555
775.831	218.908
775.960	213.269
776.088	215.597
776.216	215.067
776.344	213.017
776.472	217.252
776.600	213.261
776.728	214.605
776.856	212.891
776.985	213.782
777.113	212.874
777.241	211.471
777.369	211.571
777.497	210.664
777.625	213.849
777.753	209.723
777.881	205.697
778.010	208.420
778.138	208.664
778.266	207.109
778.394	208.908
778.522	212.387
778.650	206.983
778.778	207.218
778.906	206.908
779.035	209.185
779.163	203.529
779.291	206.706
779.419	207.513
779.547	210.092
779.675	208.168
779.803	206.731
779.931	204.647
780.060	205.328
780.188	203.571
780.316	204.983
780.444	205.496
780.572	201.437
780.700	205.008
780.828	203.933
780.956	204.294
781.085	201.815
781.213	205.269
781.341	202.866
781.469	204.664
781.597	201.832
781.725	201.983
781.853	204.050
781.981	200.908
782.110	199.370
782.238	201.765
782.366	197.563
782.494	200.101
782.622	202.975
782.750	197.647
782.878	198.908
783.006	196.395
783.135	199.908
783.263	196.303
783.391	199.748
783.519	198.983
783.647	196.437
783.775	195.303
783.903	196.311
784.031	194.798
784.160	193.395
784.288	196.025
784.416	195.613
784.544	194.521
784.672	191.941
784.800	194.731
784.928	193.782
785.056	192.420
785.185	193.958
785.313	191.437
785.441	191.042
785.569	193.151
785.697	191.454
785.825	188.723
785.953	190.319
786.081	191.950
786.210	189.874
786.338	189.899
786.466	187.151
786.594	189.092
786.722	189.941
786.850	190.756
786.978	188.151
787.106	188.092
787.235	186.403
787.363	186.756
787.491	186.160
787.619	186.025
787.747	186.899
787.875	185.126
788.003	186.630
788.131	182.513
788.260	184.210
788.388	186.294
788.516	184.630
788.644	187.445
788.772	182.563
788.900	183.613
789.028	182.151
789.156	183.613
789.285	182.748
789.413	180.471
789.541	182.773
789.669	179.958
789.797	181.454
789.925	179.261
790.053	181.815
790.181	180.966
790.310	176.529
790.438	180.185
790.566	179.042
790.694	180.899
790.822	179.034
790.950	179.311
791.078	177.555
791.206	176.723
791.335	178.479
791.463	180.168
791.591	178.773
791.719	177.412
791.847	178.160
791.975	176.092
792.103	176.134
792.231	174.555
792.360	176.807
792.488	174.908
792.616	178.378
792.744	174.840
792.872	174.765
793.000	173.252
793.128	175.546
793.256	174.605
793.385	173.269
793.513	173.689
793.641	175.681
793.769	172.739
793.897	171.496
794.025	172.370
794.153	172.101
794.281	171.050
794.410	171.168
794.538	172.185
794.666	171.496
794.794	171.622
794.922	172.714
795.050	169.168
795.178	169.992
795.306	169.605
795.435	169.109
795.563	170.529
795.691	170.462
795.819	170.815
795.947	168.420
796.075	167.479
796.203	170.454
796.331	165.008
796.460	168.286
796.588	169.143
796.716	166.966
796.844	168.471
796.972	167.218
797.100	165.252
797.228	169.992
797.356	171.504
797.485	166.420
797.613	165.252
797.741	167.025
797.869	166.227
797.997	166.571
798.125	165.832
798.253	168.773
798.381	166.076
798.510	165.227
798.638	165.311
798.766	165.193
798.894	167.445
799.022	163.277
799.150	162.832
799.278	163.496
799.406	163.555
799.535	164.462
799.663	164.588
799.791	162.160
799.919	164.429
800.047	165.403
800.175	163.630
800.303	160.765
800.431	159.328
800.560	160.429
800.688	161.025
800.816	160.689
800.944	162.395
801.072	164.899
801.200	161.706
801.328	160.630
801.456	160.950
801.585	160.647
801.713	160.345
801.841	162.395
801.969	162.034
802.097	161.210
802.225	161.580
802.353	160.429
802.481	160.143
802.610	159.126
802.738	158.857
802.866	160.151
802.994	158.916
803.122	157.429
803.250	159.067
803.378	161.664
803.506	157.714
803.635	160.118
803.763	158.445
803.891	158.059
804.019	159.101
804.147	157.882
804.275	157.504
804.403	156.639
804.531	157.597
804.660	156.151
804.788	156.336
804.916	155.731
805.044	154.151
805.172	155.319
805.300	155.891
805.428	155.882
805.556	156.303
805.685	158.471
805.813	156.345
805.941	152.370
806.069	155.370
806.197	155.756
806.325	157.050
806.453	155.403
806.581	154.807
806.710	151.571
806.838	154.059
806.966	153.218
807.094	154.395
807.222	152.622
807.350	154.361
807.478	151.739
807.606	152.479
807.735	152.899
807.863	152.118
807.991	154.067
808.119	151.899
808.247	150.840
808.375	152.874
808.503	153.025
808.631	151.126
808.760	150.403
808.888	150.588
809.016	153.168
809.144	151.328
809.272	151.471
809.400	151.513
809.528	151.017
809.656	150.882
809.785	147.664
809.913	152.655
810.041	148.933
810.169	149.824
810.297	150.437
810.425	151.588
810.553	147.403
810.681	150.403
810.810	150.529
810.938	149.076
811.066	146.773
811.194	149.689
811.322	147.815
811.450	148.420
811.578	149.050
811.706	148.101
811.835	146.571
811.963	147.706
812.091	147.008
812.219	147.294
812.347	148.924
812.475	147.168
812.603	147.000
812.731	146.899
812.860	147.412
812.988	146.882
813.116	146.151
813.244	145.950
813.372	146.269
813.500	143.874
813.628	145.109
813.756	143.050
813.885	144.622
814.013	144.176
814.141	146.185
814.269	142.697
814.397	145.227
814.525	143.479
814.653	142.941
814.781	141.756
814.910	145.269
815.038	143.395
815.166	144.992
815.294	143.655
815.422	143.916
815.550	142.941
815.678	140.067
815.806	143.412
815.935	142.370
816.063	142.815
816.191	141.613
816.319	142.353
816.447	143.697
816.575	143.950
816.703	143.050
816.831	143.378
816.960	142.807
817.088	143.571
817.216	142.277
817.344	139.882
817.472	142.168
817.600	141.857
817.728	140.941
817.856	142.403
817.985	140.210
818.113	141.647
818.241	140.773
818.369	140.824
818.497	139.748
818.625	139.697
818.753	140.143
818.881	139.723
819.010	138.748
819.138	139.277
819.266	140.025
819.394	137.319
819.522	137.538
819.650	138.882
819.778	139.160
819.906	139.664
820.035	139.395
820.163	139.076
820.291	136.496
820.419	135.529
820.547	139.975
820.675	136.765
820.803	138.605
820.931	136.546
821.060	136.176
821.188	139.000
821.316	136.798
821.444	137.765
821.572	135.067
821.700	136.092
821.828	137.353
821.956	137.471
822.085	138.319
822.213	135.840
822.341	136.067
822.469	137.227
822.597	137.000
822.725	135.118
822.853	137.160
822.981	136.168
823.110	135.571
823.238	134.261
823.366	134.521
823.494	134.899
823.622	135.462
823.750	134.849
823.878	134.252
824.006	134.437
824.135	134.983
824.263	132.462
824.391	133.252
824.519	133.252
824.647	135.235
824.775	134.437
824.903	133.076
825.031	136.345
825.160	135.286
825.288	135.345
825.416	132.992
825.544	132.193
825.672	134.286
825.800	133.563
825.928	132.118
826.056	133.118
826.185	131.319
826.313	133.227
826.441	132.857
826.569	132.832
826.697	131.546
826.825	131.857
826.953	132.034
827.081	132.017
827.210	132.134
827.338	131.202
827.466	131.412
827.594	130.328
827.722	134.160
827.850	131.983
827.978	130.689
828.106	131.244
828.235	132.437
828.363	132.597
828.491	131.311
828.619	129.513
828.747	132.613
828.875	130.672
829.003	132.723
829.131	131.294
829.260	130.966
829.388	130.445
829.516	131.403
829.644	129.588
829.772	129.294
829.900	129.672
830.028	129.496
830.156	131.328
830.285	131.286
830.413	130.361
830.541	129.580
830.669	128.563
830.797	129.790
830.925	130.613
831.053	127.815
831.181	129.193
831.310	128.504
831.438	129.454
831.566	127.538
831.694	127.832
831.822	128.664
831.950	129.227
832.078	128.361
832.206	127.580
832.335	127.420
832.463	128.050
832.591	127.714
832.719	126.849
832.847	126.840
832.975	126.798
833.103	127.924
833.231	128.479
833.360	128.235
833.488	126.538
833.616	127.773
833.744	126.420
833.872	127.899
834.000	127.387
834.128	126.445
834.256	127.168
834.385	125.966
834.513	127.941
834.641	125.462
834.769	125.807
834.897	126.471
835.025	124.059
835.153	126.109
835.281	125.387
835.410	126.370
835.538	126.361
835.666	126.319
835.794	125.765
835.922	125.613
836.050	125.689
836.178	125.739
836.306	125.328
836.435	124.739
836.563	124.723
836.691	125.521
836.819	125.689
836.947	124.252
837.075	124.891
837.203	123.370
837.331	123.941
837.460	124.353
837.588	123.378
837.716	124.849
837.844	124.176
837.972	124.563
838.100	124.681
838.228	124.521
838.356	124.866
838.485	120.992
838.613	124.647
838.741	124.261
838.869	124.706
838.997	123.244
839.125	122.160
839.253	122.538
839.381	122.218
839.510	121.437
839.638	123.168
839.766	123.328
839.894	120.672
840.022	123.815
840.150	121.546
840.278	122.622
840.406	122.588
840.535	120.504
840.663	121.832
840.791	121.580
840.919	120.269
841.047	120.563
841.175	122.286
841.303	120.655
841.431	119.958
841.560	121.815
841.688	121.294
841.816	121.227
841.944	120.303
842.072	120.336
842.200	118.866
842.328	120.672
842.456	121.647
842.585	121.857
842.713	121.118
842.841	120.244
842.969	119.655
843.097	121.563
843.225	119.891
843.353	120.294
843.481	120.756
843.610	120.521
843.738	120.059
843.866	120.807
