70-140-unpol_at_679.99nm_cut_at_1276.00Y_01.dat
24.01.2024
11:36:25
cut middle at Y: 1276.00
top cursor: 1337 down cursor: 1215 mean of: 122 lines , 2560 datapoints
wavelength(nm)	intensity[arb. units]
515.994	1514.738
516.122	1433.795
516.250	1411.746
516.378	1399.443
516.506	1403.959
516.635	1404.287
516.763	1413.549
516.891	1421.221
517.019	1438.008
517.147	1424.828
517.275	1420.254
517.403	1435.713
517.531	1421.246
517.660	1423.369
517.788	1432.156
517.916	1435.418
518.044	1417.254
518.172	1424.680
518.300	1433.615
518.428	1426.959
518.556	1425.959
518.685	1436.361
518.813	1438.508
518.941	1448.090
519.069	1450.303
519.197	1437.361
519.325	1455.721
519.453	1453.885
519.581	1473.123
519.710	1456.082
519.838	1468.779
519.966	1483.107
520.094	1472.934
520.222	1479.893
520.350	1491.656
520.478	1496.754
520.606	1502.648
520.735	1497.959
520.863	1506.811
520.991	1521.820
521.119	1509.328
521.247	1520.090
521.375	1527.344
521.503	1544.590
521.631	1540.500
521.760	1542.484
521.888	1537.779
522.016	1554.951
522.144	1541.541
522.272	1563.492
522.400	1568.754
522.528	1574.697
522.656	1571.754
522.785	1584.852
522.913	1590.270
523.041	1584.951
523.169	1586.582
523.297	1584.262
523.425	1593.959
523.553	1593.000
523.681	1598.434
523.810	1593.033
523.938	1620.303
524.066	1594.008
524.194	1607.607
524.322	1604.811
524.450	1620.254
524.578	1601.549
524.706	1612.697
524.835	1604.082
524.963	1623.852
525.091	1599.221
525.219	1613.984
525.347	1599.656
525.475	1612.902
525.603	1619.541
525.731	1611.525
525.860	1622.721
525.988	1607.721
526.116	1608.131
526.244	1619.721
526.372	1618.984
526.500	1625.115
526.628	1641.361
526.756	1614.369
526.885	1634.328
527.013	1628.426
527.141	1631.475
527.269	1617.566
527.397	1642.779
527.525	1632.779
527.653	1633.066
527.781	1627.320
527.910	1653.016
528.038	1649.262
528.166	1663.828
528.294	1648.893
528.422	1658.090
528.550	1664.525
528.678	1660.828
528.806	1680.803
528.935	1674.238
529.063	1676.205
529.191	1675.549
529.319	1686.639
529.447	1687.516
529.575	1687.631
529.703	1686.590
529.831	1699.893
529.960	1705.508
530.088	1709.607
530.216	1712.525
530.344	1704.066
530.472	1713.566
530.600	1714.000
530.728	1719.377
530.856	1730.139
530.985	1731.377
531.113	1711.475
531.241	1736.770
531.369	1735.254
531.497	1729.369
531.625	1722.836
531.753	1728.975
531.881	1754.648
532.010	1743.336
532.138	1724.254
532.266	1726.607
532.394	1735.844
532.522	1721.967
532.650	1736.779
532.778	1748.574
532.906	1727.738
533.035	1742.689
533.163	1727.025
533.291	1729.680
533.419	1716.984
533.547	1739.205
533.675	1747.008
533.803	1729.574
533.931	1735.623
534.060	1727.287
534.188	1750.730
534.316	1735.238
534.444	1738.008
534.572	1742.303
534.700	1740.582
534.828	1738.598
534.956	1751.951
535.085	1749.918
535.213	1762.902
535.341	1772.098
535.469	1763.016
535.597	1775.656
535.725	1761.402
535.853	1785.270
535.981	1770.639
536.110	1800.426
536.238	1803.254
536.366	1796.238
536.494	1791.590
536.622	1800.803
536.750	1817.967
536.878	1815.025
537.006	1837.557
537.135	1830.566
537.263	1836.713
537.391	1849.221
537.519	1829.779
537.647	1865.541
537.775	1850.975
537.903	1866.361
538.031	1857.730
538.160	1867.541
538.288	1873.139
538.416	1875.730
538.544	1875.656
538.672	1875.566
538.800	1901.131
538.928	1886.377
539.056	1899.213
539.185	1907.484
539.313	1904.131
539.441	1902.320
539.569	1915.861
539.697	1910.721
539.825	1922.402
539.953	1909.557
540.081	1894.795
540.210	1926.352
540.338	1907.967
540.466	1934.934
540.594	1929.066
540.722	1915.754
540.850	1926.590
540.978	1924.795
541.106	1937.943
541.235	1935.762
541.363	1921.959
541.491	1917.631
541.619	1926.566
541.747	1931.680
541.875	1937.754
542.003	1928.877
542.131	1947.852
542.260	1940.713
542.388	1930.434
542.516	1952.369
542.644	1937.246
542.772	1949.795
542.900	1951.869
543.028	1961.393
543.156	1957.148
543.285	1951.975
543.413	1952.746
543.541	1964.557
543.669	1969.279
543.797	1972.549
543.925	1957.139
544.053	1976.967
544.181	1977.918
544.310	1964.311
544.438	1968.352
544.566	1978.689
544.694	1981.361
544.822	1995.057
544.950	1980.484
545.078	1985.131
545.206	1988.197
545.335	2000.918
545.463	1985.082
545.591	1998.287
545.719	1988.910
545.847	2004.107
545.975	1999.811
546.103	1995.549
546.231	2013.221
546.360	2008.082
546.488	2011.639
546.616	2012.189
546.744	2027.197
546.872	2002.623
547.000	2017.607
547.128	2011.180
547.256	2014.287
547.385	2016.041
547.513	2008.795
547.641	2027.082
547.769	2032.107
547.897	2030.467
548.025	2031.213
548.153	2039.295
548.281	2024.672
548.410	2034.041
548.538	2036.639
548.666	2036.910
548.794	2038.303
548.922	2036.115
549.050	2051.295
549.178	2052.803
549.306	2058.992
549.435	2071.262
549.563	2064.410
549.691	2047.156
549.819	2070.393
549.947	2071.934
550.075	2064.180
550.203	2061.410
550.331	2063.566
550.460	2069.500
550.588	2064.484
550.716	2087.230
550.844	2055.754
550.972	2058.967
551.100	2062.861
551.228	2071.607
551.356	2052.811
551.485	2050.016
551.613	2058.377
551.741	2046.885
551.869	2038.549
551.997	2034.361
552.125	2058.598
552.253	2059.377
552.381	2035.221
552.510	2038.992
552.638	2045.246
552.766	2042.221
552.894	2026.844
553.022	2028.213
553.150	2036.525
553.278	2021.000
553.406	2030.279
553.535	2020.189
553.663	2029.426
553.791	2022.787
553.919	2022.828
554.047	2030.779
554.175	2037.885
554.303	2018.877
554.431	2015.721
554.560	2037.582
554.688	2042.516
554.816	2020.959
554.944	2033.205
555.072	2038.246
555.200	2043.852
555.328	2029.590
555.456	2047.516
555.585	2043.762
555.713	2050.098
555.841	2060.926
555.969	2049.672
556.097	2073.385
556.225	2075.246
556.353	2068.885
556.481	2069.295
556.610	2074.787
556.738	2087.557
556.866	2081.164
556.994	2081.131
557.122	2069.213
557.250	2095.525
557.378	2109.385
557.506	2099.648
557.635	2109.869
557.763	2091.770
557.891	2118.156
558.019	2105.434
558.147	2108.869
558.275	2130.951
558.403	2139.213
558.531	2138.451
558.660	2119.008
558.788	2130.746
558.916	2125.639
559.044	2109.033
559.172	2135.377
559.300	2155.311
559.428	2146.254
559.556	2143.787
559.685	2161.492
559.813	2143.721
559.941	2149.492
560.069	2162.902
560.197	2161.525
560.325	2156.885
560.453	2154.230
560.581	2166.680
560.710	2170.131
560.838	2165.467
560.966	2155.402
561.094	2187.721
561.222	2156.344
561.350	2162.664
561.478	2150.525
561.606	2166.836
561.735	2147.025
561.863	2163.836
561.991	2160.484
562.119	2154.139
562.247	2161.213
562.375	2169.475
562.503	2154.074
562.631	2146.295
562.760	2150.607
562.888	2152.115
563.016	2156.311
563.144	2160.393
563.272	2149.377
563.400	2151.893
563.528	2153.582
563.656	2161.623
563.785	2157.787
563.913	2152.492
564.041	2153.393
564.169	2153.385
564.297	2163.918
564.425	2157.205
564.553	2177.287
564.681	2180.131
564.810	2160.516
564.938	2179.377
565.066	2163.885
565.194	2173.443
565.322	2183.426
565.450	2174.697
565.578	2211.975
565.706	2179.943
565.835	2208.066
565.963	2187.385
566.091	2191.025
566.219	2214.336
566.347	2202.893
566.475	2207.131
566.603	2216.328
566.731	2214.057
566.860	2220.008
566.988	2216.943
567.116	2241.959
567.244	2227.959
567.372	2253.852
567.500	2245.557
567.628	2249.254
567.756	2254.705
567.885	2254.352
568.013	2282.172
568.141	2258.861
568.269	2270.238
568.397	2283.172
568.525	2270.475
568.653	2302.328
568.781	2288.467
568.910	2322.000
569.038	2292.475
569.166	2302.566
569.294	2303.410
569.422	2344.852
569.550	2320.049
569.678	2324.828
569.806	2335.352
569.935	2345.057
570.063	2339.328
570.191	2345.549
570.319	2370.016
570.447	2354.115
570.575	2359.156
570.703	2366.262
570.831	2390.016
570.960	2386.377
571.088	2390.230
571.216	2370.492
571.344	2391.574
571.472	2390.000
571.600	2415.098
571.728	2397.230
571.856	2401.287
571.985	2405.336
572.113	2421.221
572.241	2431.008
572.369	2449.238
572.497	2430.689
572.625	2452.443
572.753	2445.508
572.881	2445.934
573.010	2455.115
573.138	2480.041
573.266	2468.533
573.394	2460.852
573.522	2471.770
573.650	2486.639
573.778	2474.639
573.906	2473.467
574.035	2486.648
574.163	2479.730
574.291	2528.434
574.419	2500.697
574.547	2505.344
574.675	2514.000
574.803	2514.467
574.931	2496.721
575.060	2505.631
575.188	2518.730
575.316	2501.713
575.444	2506.943
575.572	2527.352
575.700	2521.090
575.828	2516.582
575.956	2522.344
576.085	2508.926
576.213	2515.279
576.341	2513.885
576.469	2531.762
576.597	2505.615
576.725	2517.844
576.853	2513.189
576.981	2511.656
577.110	2527.418
577.238	2539.689
577.366	2517.730
577.494	2526.713
577.622	2513.107
577.750	2514.402
577.878	2539.131
578.006	2555.402
578.135	2538.115
578.263	2542.361
578.391	2550.975
578.519	2536.385
578.647	2565.795
578.775	2547.582
578.903	2529.287
579.031	2550.549
579.160	2545.689
579.288	2523.303
579.416	2542.279
579.544	2581.270
579.672	2535.484
579.800	2539.164
579.928	2523.246
580.056	2559.607
580.185	2541.730
580.313	2567.418
580.441	2593.057
580.569	2571.443
580.697	2548.574
580.825	2581.631
580.953	2593.992
581.081	2608.123
581.210	2577.320
581.338	2583.074
581.466	2602.721
581.594	2616.402
581.722	2615.426
581.850	2632.426
581.978	2624.918
582.106	2623.934
582.235	2625.148
582.363	2618.303
582.491	2649.434
582.619	2677.893
582.747	2649.189
582.875	2634.221
583.003	2661.402
583.131	2699.811
583.260	2699.557
583.388	2702.902
583.516	2731.852
583.644	2710.090
583.772	2696.402
583.900	2728.033
584.028	2741.221
584.156	2736.074
584.285	2764.131
584.413	2767.541
584.541	2763.746
584.669	2780.295
584.797	2801.852
584.925	2815.459
585.053	2794.164
585.181	2823.303
585.310	2838.139
585.438	2797.877
585.566	2843.230
585.694	2831.295
585.822	2831.131
585.950	2846.221
586.078	2854.566
586.206	2835.311
586.335	2883.303
586.463	2936.418
586.591	2907.443
586.719	2933.148
586.847	2966.926
586.975	2922.189
587.103	2944.705
587.231	2908.533
587.360	2947.279
587.488	2942.500
587.616	2926.967
587.744	2943.287
587.872	2951.254
588.000	2982.533
588.128	2954.730
588.256	2960.311
588.385	2987.180
588.513	2966.213
588.641	2988.820
588.769	2999.459
588.897	2987.541
589.025	3014.148
589.153	2989.164
589.281	2996.582
589.410	3037.172
589.538	3031.951
589.666	3051.869
589.794	3032.877
589.922	2993.221
590.050	3031.992
590.178	3022.451
590.306	3032.484
590.435	3048.975
590.563	3061.508
590.691	3005.008
590.819	3095.082
590.947	3081.295
591.075	3084.697
591.203	3111.885
591.331	3026.139
591.460	3049.180
591.588	3113.877
591.716	3083.762
591.844	3078.492
591.972	3124.549
592.100	3087.033
592.228	3106.566
592.356	3100.410
592.485	3099.221
592.613	3090.287
592.741	3148.303
592.869	3099.164
592.997	3121.648
593.125	3128.041
593.253	3150.984
593.381	3167.443
593.510	3150.328
593.638	3160.254
593.766	3154.180
593.894	3122.779
594.022	3168.762
594.150	3184.615
594.278	3193.574
594.406	3199.541
594.535	3184.828
594.663	3206.221
594.791	3202.451
594.919	3243.221
595.047	3205.664
595.175	3256.557
595.303	3255.918
595.431	3248.893
595.560	3262.525
595.688	3276.779
595.816	3311.074
595.944	3251.262
596.072	3266.164
596.200	3276.574
596.328	3293.566
596.456	3256.426
596.585	3272.197
596.713	3278.139
596.841	3333.959
596.969	3311.738
597.097	3360.689
597.225	3340.139
597.353	3354.303
597.481	3368.393
597.610	3370.098
597.738	3406.697
597.866	3384.615
597.994	3404.156
598.122	3406.525
598.250	3441.434
598.378	3406.861
598.506	3393.631
598.635	3437.230
598.763	3425.254
598.891	3447.926
599.019	3447.066
599.147	3479.738
599.275	3419.730
599.403	3490.361
599.531	3500.787
599.660	3476.648
599.788	3478.738
599.916	3496.984
600.044	3567.057
600.172	3500.533
600.300	3513.951
600.428	3504.738
600.556	3547.574
600.685	3617.262
600.813	3565.336
600.941	3575.107
601.069	3571.393
601.197	3566.885
601.325	3586.500
601.453	3548.369
601.581	3610.902
601.710	3615.607
601.838	3615.762
601.966	3699.467
602.094	3692.033
602.222	3666.516
602.350	3642.123
602.478	3664.648
602.606	3705.902
602.735	3666.811
602.863	3707.000
602.991	3723.352
603.119	3682.787
603.247	3720.328
603.375	3744.328
603.503	3760.705
603.631	3790.148
603.760	3786.951
603.888	3806.811
604.016	3792.811
604.144	3778.934
604.272	3818.541
604.400	3838.549
604.528	3817.672
604.656	3873.418
604.785	3855.098
604.913	3930.361
605.041	3848.721
605.169	3906.000
605.297	3902.402
605.425	3895.746
605.553	3946.918
605.681	3924.434
605.810	3963.320
605.938	3946.057
606.066	3929.795
606.194	3965.828
606.322	3971.803
606.450	3990.828
606.578	3971.943
606.706	3992.951
606.835	4018.197
606.963	4067.885
607.091	4048.107
607.219	4017.402
607.347	4005.238
607.475	4049.590
607.603	4019.451
607.731	4027.434
607.860	4039.033
607.988	4045.164
608.116	4086.369
608.244	4050.795
608.372	4106.557
608.500	4048.648
608.628	4042.754
608.756	4052.213
608.885	4126.377
609.013	4058.164
609.141	4063.164
609.269	4030.148
609.397	4060.779
609.525	4084.328
609.653	4112.992
609.781	4055.672
609.910	4110.049
610.038	4183.434
610.166	4097.352
610.294	4080.844
610.422	4100.287
610.550	4076.418
610.678	4089.574
610.806	4108.221
610.935	4066.090
611.063	4101.697
611.191	4129.836
611.319	4119.721
611.447	4115.000
611.575	4103.221
611.703	4088.270
611.831	4128.090
611.960	4112.541
612.088	4122.582
612.216	4118.270
612.344	4133.607
612.472	4130.016
612.600	4130.197
612.728	4140.738
612.856	4107.713
612.985	4122.090
613.113	4169.180
613.241	4154.566
613.369	4128.852
613.497	4141.443
613.625	4172.385
613.753	4157.311
613.881	4160.139
614.010	4144.000
614.138	4196.139
614.266	4185.934
614.394	4204.926
614.522	4192.066
614.650	4175.287
614.778	4203.459
614.906	4186.902
615.035	4217.877
615.163	4187.541
615.291	4239.598
615.419	4199.311
615.547	4203.590
615.675	4233.279
615.803	4266.434
615.931	4244.148
616.060	4233.066
616.188	4257.680
616.316	4284.123
616.444	4240.344
616.572	4281.238
616.700	4298.172
616.828	4289.033
616.956	4304.787
617.085	4309.213
617.213	4308.451
617.341	4342.197
617.469	4408.508
617.597	4312.910
617.725	4333.869
617.853	4326.852
617.981	4347.754
618.110	4398.639
618.238	4390.189
618.366	4373.033
618.494	4382.713
618.622	4393.680
618.750	4452.975
618.878	4435.828
619.006	4425.664
619.135	4460.893
619.263	4452.402
619.391	4429.172
619.519	4462.557
619.647	4524.434
619.775	4498.148
619.903	4516.631
620.031	4498.607
620.160	4504.033
620.288	4548.057
620.416	4536.566
620.544	4541.115
620.672	4577.754
620.800	4585.746
620.928	4582.123
621.056	4648.361
621.185	4597.730
621.313	4596.803
621.441	4627.156
621.569	4637.746
621.697	4663.795
621.825	4676.566
621.953	4660.967
622.081	4690.852
622.210	4662.189
622.338	4697.615
622.466	4711.025
622.594	4749.254
622.722	4684.549
622.850	4749.500
622.978	4774.016
623.106	4772.590
623.235	4746.770
623.363	4770.639
623.491	4767.590
623.619	4822.197
623.747	4774.557
623.875	4833.402
624.003	4779.648
624.131	4810.320
624.260	4841.295
624.388	4808.090
624.516	4828.008
624.644	4818.762
624.772	4811.033
624.900	4800.500
625.028	4827.525
625.156	4821.410
625.285	4870.590
625.413	4877.893
625.541	4864.984
625.669	4862.279
625.797	4890.861
625.925	4849.639
626.053	4880.811
626.181	4838.656
626.310	4954.074
626.438	4861.451
626.566	4877.279
626.694	4879.926
626.822	4868.000
626.950	4909.639
627.078	4856.918
627.206	4917.836
627.335	4882.541
627.463	4881.410
627.591	4892.910
627.719	4969.992
627.847	4924.762
627.975	4919.369
628.103	4939.418
628.231	4928.475
628.360	4920.607
628.488	4909.262
628.616	4911.352
628.744	4932.844
628.872	4950.189
629.000	4953.787
629.128	4932.197
629.256	4919.057
629.385	4933.508
629.513	4923.877
629.641	4951.984
629.769	4985.434
629.897	4982.795
630.025	4947.541
630.153	4987.574
630.281	4958.943
630.410	4959.041
630.538	4965.205
630.666	4965.639
630.794	4947.418
630.922	4983.082
631.050	4951.844
631.178	4965.459
631.306	4957.434
631.435	4944.123
631.563	4982.721
631.691	5016.648
631.819	5047.787
631.947	4973.492
632.075	4926.541
632.203	4985.451
632.331	4985.230
632.460	4980.541
632.588	4979.049
632.716	4989.131
632.844	5019.811
632.972	4950.410
633.100	4934.836
633.228	4962.262
633.356	4958.984
633.485	4976.279
633.613	4975.730
633.741	4971.631
633.869	4956.033
633.997	4967.484
634.125	5000.746
634.253	4963.016
634.381	4973.000
634.510	4993.180
634.638	4967.598
634.766	5026.582
634.894	4976.623
635.022	4963.156
635.150	4964.574
635.278	4969.336
635.406	4941.418
635.535	4958.385
635.663	4985.262
635.791	4925.607
635.919	4955.320
636.047	4959.107
636.175	4959.377
636.303	4930.467
636.431	4963.951
636.560	4957.123
636.688	4904.041
636.816	4939.336
636.944	4927.098
637.072	4935.787
637.200	4936.180
637.328	4940.418
637.456	4909.238
637.585	4908.369
637.713	4943.172
637.841	4923.057
637.969	4901.508
638.097	4921.738
638.225	4927.533
638.353	4909.852
638.481	4919.074
638.610	4927.475
638.738	4904.123
638.866	4904.230
638.994	4919.861
639.122	4895.090
639.250	4907.172
639.378	4926.738
639.506	4912.246
639.635	4929.189
639.763	4880.525
639.891	4918.697
640.019	4919.041
640.147	4969.156
640.275	4895.607
640.403	4890.164
640.531	4957.869
640.660	4921.541
640.788	4987.410
640.916	4949.328
641.044	4939.967
641.172	4922.164
641.300	4932.738
641.428	4908.311
641.556	4942.197
641.685	4933.500
641.813	4940.459
641.941	4941.885
642.069	4953.918
642.197	4969.426
642.325	4969.082
642.453	4950.205
642.581	5047.131
642.710	4927.025
642.838	4979.230
642.966	4940.352
643.094	4969.213
643.222	4944.066
643.350	4948.590
643.478	5001.623
643.606	4945.148
643.735	4920.508
643.863	4964.057
643.991	4961.869
644.119	4971.754
644.247	4973.795
644.375	4934.984
644.503	4972.852
644.631	5004.475
644.760	4985.910
644.888	5003.295
645.016	4987.861
645.144	4992.361
645.272	4930.311
645.400	5014.590
645.528	4970.549
645.656	4968.779
645.785	4970.410
645.913	5042.582
646.041	4984.148
646.169	5012.582
646.297	4948.902
646.425	4997.623
646.553	4964.582
646.681	4922.861
646.810	4956.262
646.938	4928.246
647.066	4890.426
647.194	4995.434
647.322	4925.098
647.450	4922.049
647.578	4915.402
647.706	4887.000
647.835	4904.811
647.963	4962.008
648.091	4870.869
648.219	4896.902
648.347	4913.664
648.475	4874.828
648.603	4872.238
648.731	4840.861
648.860	4844.344
648.988	4807.098
649.116	4826.279
649.244	4794.795
649.372	4839.230
649.500	4816.205
649.628	4842.246
649.756	4789.402
649.885	4782.869
650.013	4747.008
650.141	4759.705
650.269	4704.016
650.397	4708.680
650.525	4680.762
650.653	4749.795
650.781	4719.869
650.910	4665.467
651.038	4630.648
651.166	4625.713
651.294	4646.566
651.422	4602.262
651.550	4599.066
651.678	4602.713
651.806	4587.434
651.935	4570.131
652.063	4581.639
652.191	4567.943
652.319	4529.893
652.447	4533.115
652.575	4524.672
652.703	4526.033
652.831	4540.828
652.960	4498.279
653.088	4505.123
653.216	4457.295
653.344	4477.213
653.472	4461.910
653.600	4436.385
653.728	4420.705
653.856	4428.770
653.985	4398.164
654.113	4398.197
654.241	4394.434
654.369	4405.451
654.497	4409.221
654.625	4400.082
654.753	4355.623
654.881	4385.992
655.010	4439.533
655.138	4346.910
655.266	4328.811
655.394	4339.484
655.522	4363.107
655.650	4283.328
655.778	4349.885
655.906	4301.180
656.035	4246.762
656.163	4265.443
656.291	4250.680
656.419	4277.598
656.547	4235.541
656.675	4242.828
656.803	4237.361
656.931	4210.287
657.060	4219.525
657.188	4209.016
657.316	4208.689
657.444	4183.549
657.572	4181.033
657.700	4158.910
657.828	4154.885
657.956	4193.410
658.085	4221.844
658.213	4208.721
658.341	4198.311
658.469	4174.762
658.597	4234.221
658.725	4168.098
658.853	4159.484
658.981	4139.197
659.110	4173.361
659.238	4173.795
659.366	4144.410
659.494	4121.926
659.622	4069.770
659.750	4110.828
659.878	4082.164
660.006	4082.713
660.135	4061.189
660.263	4067.016
660.391	4129.738
660.519	4117.680
660.647	4041.623
660.775	4050.311
660.903	3993.107
661.031	3984.582
661.160	4024.689
661.288	4020.246
661.416	4018.811
661.544	3998.230
661.672	3973.492
661.800	3971.156
661.928	3950.025
662.056	4001.943
662.185	3923.295
662.313	3962.779
662.441	4002.615
662.569	3946.770
662.697	3912.738
662.825	3902.984
662.953	3880.869
663.081	3879.049
663.210	3891.049
663.338	3856.008
663.466	3858.402
663.594	3869.664
663.722	3836.344
663.850	3852.680
663.978	3821.959
664.106	3888.975
664.235	3806.557
664.363	3831.582
664.491	3827.893
664.619	3803.156
664.747	3784.607
664.875	3788.664
665.003	3795.230
665.131	3746.033
665.260	3805.623
665.388	3747.287
665.516	3722.000
665.644	3736.918
665.772	3748.762
665.900	3753.705
666.028	3723.107
666.156	3712.238
666.285	3712.197
666.413	3714.434
666.541	3686.090
666.669	3664.820
666.797	3633.156
666.925	3661.459
667.053	3711.459
667.181	3611.213
667.310	3646.893
667.438	3643.582
667.566	3634.516
667.694	3637.943
667.822	3617.377
667.950	3594.000
668.078	3607.279
668.206	3578.426
668.335	3538.016
668.463	3554.811
668.591	3549.189
668.719	3564.779
668.847	3530.943
668.975	3517.902
669.103	3524.328
669.231	3542.205
669.360	3489.467
669.488	3480.230
669.616	3481.213
669.744	3507.730
669.872	3463.459
670.000	3456.107
670.128	3429.770
670.256	3424.508
670.385	3445.484
670.513	3414.861
670.641	3445.475
670.769	3442.541
670.897	3373.975
671.025	3396.336
671.153	3379.393
671.281	3398.770
671.410	3429.967
671.538	3360.828
671.666	3380.959
671.794	3375.803
671.922	3348.025
672.050	3393.516
672.178	3300.139
672.306	3313.893
672.435	3321.434
672.563	3307.148
672.691	3331.156
672.819	3294.311
672.947	3253.008
673.075	3259.566
673.203	3268.648
673.331	3233.213
673.460	3231.270
673.588	3221.836
673.716	3265.934
673.844	3214.352
673.972	3207.459
674.100	3177.762
674.228	3177.385
674.356	3153.098
674.485	3158.639
674.613	3169.123
674.741	3159.057
674.869	3103.697
674.997	3151.172
675.125	3125.049
675.253	3078.508
675.381	3098.344
675.510	3068.197
675.638	3099.861
675.766	3038.180
675.894	3087.270
676.022	3028.656
676.150	3022.836
676.278	3025.541
676.406	3010.041
676.535	3038.623
676.663	3002.975
676.791	2992.811
676.919	2975.402
677.047	2950.615
677.175	2942.049
677.303	3004.869
677.431	2899.770
677.560	2899.098
677.688	2867.893
677.816	2930.828
677.944	2875.631
678.072	2841.402
678.200	2833.762
678.328	2850.459
678.456	2843.459
678.585	2815.000
678.713	2820.139
678.841	2801.041
678.969	2799.680
679.097	2803.074
679.225	2768.615
679.353	2756.074
679.481	2733.664
679.610	2726.385
679.738	2691.484
679.866	2706.549
679.994	2721.246
680.122	2712.344
680.250	2681.639
680.378	2698.107
680.506	2662.418
680.635	2661.803
680.763	2690.262
680.891	2661.156
681.019	2608.762
681.147	2655.525
681.275	2609.803
681.403	2581.639
681.531	2597.090
681.660	2607.303
681.788	2627.574
681.916	2538.984
682.044	2569.525
682.172	2564.910
682.300	2524.082
682.428	2540.025
682.556	2528.746
682.685	2521.107
682.813	2521.672
682.941	2501.082
683.069	2486.475
683.197	2504.533
683.325	2472.828
683.453	2471.738
683.581	2444.615
683.710	2455.451
683.838	2448.049
683.966	2440.820
684.094	2462.172
684.222	2424.508
684.350	2405.557
684.478	2407.336
684.606	2422.844
684.735	2390.270
684.863	2381.303
684.991	2381.926
685.119	2394.336
685.247	2383.385
685.375	2342.434
685.503	2364.344
685.631	2375.066
685.760	2348.377
685.888	2323.590
686.016	2326.098
686.144	2334.500
686.272	2313.574
686.400	2320.803
686.528	2295.230
686.656	2299.123
686.785	2272.418
686.913	2287.459
687.041	2261.508
687.169	2262.270
687.297	2273.975
687.425	2246.533
687.553	2248.893
687.681	2248.754
687.810	2229.057
687.938	2220.738
688.066	2229.672
688.194	2237.574
688.322	2207.369
688.450	2200.795
688.578	2205.344
688.706	2201.311
688.835	2184.049
688.963	2192.803
689.091	2193.926
689.219	2154.189
689.347	2145.557
689.475	2167.738
689.603	2140.926
689.731	2153.582
689.860	2149.164
689.988	2152.902
690.116	2131.311
690.244	2128.869
690.372	2122.049
690.500	2110.746
690.628	2112.082
690.756	2102.385
690.885	2092.844
691.013	2082.156
691.141	2099.639
691.269	2080.467
691.397	2073.689
691.525	2073.803
691.653	2064.008
691.781	2058.221
691.910	2045.426
692.038	2038.361
692.166	2038.180
692.294	2038.148
692.422	2026.262
692.550	2028.656
692.678	2014.951
692.806	2008.410
692.935	2003.467
693.063	1984.230
693.191	1990.861
693.319	1977.123
693.447	1973.820
693.575	1969.074
693.703	1967.762
693.831	1955.639
693.960	1942.566
694.088	1955.508
694.216	1937.336
694.344	1929.541
694.472	1928.811
694.600	1911.205
694.728	1902.951
694.856	1893.254
694.985	1905.041
695.113	1884.910
695.241	1869.902
695.369	1873.549
695.497	1868.770
695.625	1873.926
695.753	1864.418
695.881	1843.779
696.010	1838.205
696.138	1837.721
696.266	1822.844
696.394	1817.434
696.522	1807.426
696.650	1794.230
696.778	1793.098
696.906	1789.246
697.035	1774.189
697.163	1756.566
697.291	1763.975
697.419	1750.492
697.547	1736.623
697.675	1755.557
697.803	1735.795
697.931	1734.270
698.060	1726.000
698.188	1705.943
698.316	1712.820
698.444	1695.959
698.572	1691.295
698.700	1699.508
698.828	1677.475
698.956	1669.648
699.085	1658.082
699.213	1647.885
699.341	1638.844
699.469	1648.074
699.597	1643.844
699.725	1630.336
699.853	1609.262
699.981	1622.385
700.110	1604.967
700.238	1608.000
700.366	1599.516
700.494	1589.934
700.622	1592.402
700.750	1567.525
700.878	1587.123
701.006	1550.607
701.135	1556.803
701.263	1547.057
701.391	1532.164
701.519	1546.279
701.647	1532.984
701.775	1534.656
701.903	1526.607
702.031	1517.984
702.160	1512.951
702.288	1506.057
702.416	1497.541
702.544	1488.762
702.672	1487.443
702.800	1482.467
702.928	1487.910
703.056	1478.975
703.185	1466.975
703.313	1466.664
703.441	1454.385
703.569	1460.008
703.697	1459.033
703.825	1448.254
703.953	1448.189
704.081	1435.779
704.210	1424.689
704.338	1429.025
704.466	1415.500
704.594	1410.107
704.722	1403.418
704.850	1400.828
704.978	1388.984
705.106	1397.557
705.235	1378.721
705.363	1366.254
705.491	1384.402
705.619	1366.008
705.747	1355.541
705.875	1371.123
706.003	1349.254
706.131	1356.402
706.260	1333.795
706.388	1332.557
706.516	1320.861
706.644	1324.000
706.772	1319.705
706.900	1304.525
707.028	1295.820
707.156	1292.984
707.285	1294.025
707.413	1295.861
707.541	1283.434
707.669	1275.352
707.797	1274.336
707.925	1273.680
708.053	1258.754
708.181	1259.221
708.310	1245.754
708.438	1251.689
708.566	1230.738
708.694	1242.689
708.822	1246.262
708.950	1231.697
709.078	1220.279
709.206	1217.180
709.335	1214.984
709.463	1197.828
709.591	1190.574
709.719	1187.795
709.847	1190.926
709.975	1177.295
710.103	1173.410
710.231	1165.328
710.360	1155.967
710.488	1155.098
710.616	1145.311
710.744	1146.311
710.872	1143.795
711.000	1138.344
711.128	1119.885
711.256	1117.525
711.385	1124.697
711.513	1121.844
711.641	1107.049
711.769	1101.803
711.897	1112.025
712.025	1095.418
712.153	1093.631
712.281	1093.918
712.410	1079.574
712.538	1076.590
712.666	1065.746
712.794	1065.738
712.922	1059.525
713.050	1056.418
713.178	1057.607
713.306	1064.311
713.435	1047.156
713.563	1040.016
713.691	1044.754
713.819	1036.246
713.947	1032.361
714.075	1021.418
714.203	1029.270
714.331	1014.656
714.460	1014.082
714.588	1012.557
714.716	1010.746
714.844	999.475
714.972	991.623
715.100	995.033
715.228	994.492
715.356	997.098
715.485	986.525
715.613	972.205
715.741	971.115
715.869	969.402
715.997	957.705
716.125	971.189
716.253	957.270
716.381	959.918
716.510	963.975
716.638	945.131
716.766	943.279
716.894	939.172
717.022	934.344
717.150	936.066
717.278	932.574
717.406	927.500
717.535	925.836
717.663	922.762
717.791	920.795
717.919	916.246
718.047	911.057
718.175	905.598
718.303	914.541
718.431	900.016
718.560	894.008
718.688	895.377
718.816	887.590
718.944	888.066
719.072	893.025
719.200	879.893
719.328	878.115
719.456	875.623
719.585	879.303
719.713	871.525
719.841	867.164
719.969	849.533
720.097	853.557
720.225	849.574
720.353	854.475
720.481	848.762
720.610	844.762
720.738	839.787
720.866	840.746
720.994	838.566
721.122	833.295
721.250	829.623
721.378	818.992
721.506	819.582
721.635	821.648
721.763	817.590
721.891	811.197
722.019	810.992
722.147	804.787
722.275	801.205
722.403	791.459
722.531	792.680
722.660	791.885
722.788	792.623
722.916	792.270
723.044	785.303
723.172	780.590
723.300	776.664
723.428	775.664
723.556	770.426
723.685	769.303
723.813	761.123
723.941	760.787
724.069	760.779
724.197	758.148
724.325	747.820
724.453	755.934
724.581	752.541
724.710	746.066
724.838	737.246
724.966	735.180
725.094	740.352
725.222	724.934
725.350	716.664
725.478	721.574
725.606	720.689
725.735	713.852
725.863	720.615
725.991	708.467
726.119	708.582
726.247	711.238
726.375	698.705
726.503	696.721
726.631	698.033
726.760	685.385
726.888	689.303
727.016	690.721
727.144	683.754
727.272	678.057
727.400	675.041
727.528	665.549
727.656	671.549
727.785	655.926
727.913	663.459
728.041	656.361
728.169	670.893
728.297	659.123
728.425	650.025
728.553	653.844
728.681	644.410
728.810	638.016
728.938	639.213
729.066	639.016
729.194	630.689
729.322	630.951
729.450	623.795
729.578	627.311
729.706	623.016
729.835	622.328
729.963	625.525
730.091	611.844
730.219	614.402
730.347	611.885
730.475	606.484
730.603	605.475
730.731	602.393
730.860	600.082
730.988	600.352
731.116	601.811
731.244	592.984
731.372	587.828
731.500	585.484
731.628	582.434
731.756	584.836
731.885	579.574
732.013	583.705
732.141	570.574
732.269	570.713
732.397	572.189
732.525	572.393
732.653	567.656
732.781	564.238
732.910	563.598
733.038	561.680
733.166	555.787
733.294	557.443
733.422	548.221
733.550	552.459
733.678	544.189
733.806	548.189
733.935	543.582
734.063	542.287
734.191	548.844
734.319	539.295
734.447	544.525
734.575	544.246
734.703	532.959
734.831	532.328
734.960	530.016
735.088	530.361
735.216	531.492
735.344	524.877
735.472	522.295
735.600	528.385
735.728	523.926
735.856	512.779
735.985	516.656
736.113	516.311
736.241	513.533
736.369	509.361
736.497	505.484
736.625	508.164
736.753	508.869
736.881	505.377
737.010	501.869
737.138	494.369
737.266	495.811
737.394	499.492
737.522	496.180
737.650	494.090
737.778	492.238
737.906	487.680
738.035	480.262
738.163	484.844
738.291	484.844
738.419	483.656
738.547	479.541
738.675	477.336
738.803	478.557
738.931	474.467
739.060	478.164
739.188	471.361
739.316	470.008
739.444	464.123
739.572	462.459
739.700	467.131
739.828	461.352
739.956	462.926
740.085	465.262
740.213	461.402
740.341	454.377
740.469	457.672
740.597	454.254
740.725	458.057
740.853	453.311
740.981	456.246
741.110	451.951
741.238	453.410
741.366	448.705
741.494	455.082
741.622	444.377
741.750	446.074
741.878	447.598
742.006	441.352
742.135	436.484
742.263	437.197
742.391	433.393
742.519	441.615
742.647	431.336
742.775	430.656
742.903	430.279
743.031	425.049
743.160	429.861
743.288	423.607
743.416	421.451
743.544	425.107
743.672	423.443
743.800	419.287
743.928	415.680
744.056	416.762
744.185	423.885
744.313	414.336
744.441	418.402
744.569	417.713
744.697	408.828
744.825	414.016
744.953	415.361
745.081	409.918
745.210	408.639
745.338	406.402
745.466	409.213
745.594	401.631
745.722	399.164
745.850	399.557
745.978	396.213
746.106	402.434
746.235	400.967
746.363	394.541
746.491	396.934
746.619	399.361
746.747	389.221
746.875	389.746
747.003	388.574
747.131	390.664
747.260	382.590
747.388	387.262
747.516	387.574
747.644	384.221
747.772	384.803
747.900	382.393
748.028	380.984
748.156	377.803
748.285	379.057
748.413	377.262
748.541	378.402
748.669	370.197
748.797	370.041
748.925	372.123
749.053	370.697
749.181	367.262
749.310	373.246
749.438	365.369
749.566	365.508
749.694	363.475
749.822	363.951
749.950	363.820
750.078	360.082
750.206	358.057
750.335	360.377
750.463	355.426
750.591	356.934
750.719	356.795
750.847	350.861
750.975	349.361
751.103	348.984
751.231	351.098
751.360	346.270
751.488	346.598
751.616	344.459
751.744	344.615
751.872	344.516
752.000	346.762
752.128	347.402
752.256	342.516
752.385	341.959
752.513	342.287
752.641	333.811
752.769	337.361
752.897	332.566
753.025	326.246
753.153	330.607
753.281	333.467
753.410	331.992
753.538	331.066
753.666	327.049
753.794	324.066
753.922	324.615
754.050	326.484
754.178	326.787
754.306	320.287
754.435	323.623
754.563	326.148
754.691	319.451
754.819	320.139
754.947	318.172
755.075	321.492
755.203	318.836
755.331	315.902
755.460	311.762
755.588	316.656
755.716	307.803
755.844	309.730
755.972	309.451
756.100	313.951
756.228	308.639
756.356	310.090
756.485	310.246
756.613	309.262
756.741	302.967
756.869	305.025
756.997	304.566
757.125	301.943
757.253	305.754
757.381	302.008
757.510	303.492
757.638	300.697
757.766	303.590
757.894	297.885
758.022	301.590
758.150	295.189
758.278	298.721
758.406	295.115
758.535	293.107
758.663	297.672
758.791	291.344
758.919	291.082
759.047	290.066
759.175	291.434
759.303	291.254
759.431	287.025
759.560	288.025
759.688	289.574
759.816	292.230
759.944	290.770
760.072	286.320
760.200	284.041
760.328	285.328
760.456	282.689
760.585	282.844
760.713	278.131
760.841	280.811
760.969	276.672
761.097	279.156
761.225	277.615
761.353	281.344
761.481	279.410
761.610	277.516
761.738	276.861
761.866	276.352
761.994	275.680
762.122	272.418
762.250	273.893
762.378	270.984
762.506	274.254
762.635	270.123
762.763	271.762
762.891	269.525
763.019	269.754
763.147	266.484
763.275	269.623
763.403	268.385
763.531	264.270
763.660	266.557
763.788	264.139
763.916	266.156
764.044	264.090
764.172	265.205
764.300	257.656
764.428	261.959
764.556	260.664
764.685	261.811
764.813	260.910
764.941	261.656
765.069	262.467
765.197	258.074
765.325	254.705
765.453	257.492
765.581	259.115
765.710	250.934
765.838	254.574
765.966	253.082
766.094	254.574
766.222	251.287
766.350	254.287
766.478	253.246
766.606	252.615
766.735	254.902
766.863	246.672
766.991	247.443
767.119	250.361
767.247	248.172
767.375	246.270
767.503	248.115
767.631	246.746
767.760	242.164
767.888	245.164
768.016	248.918
768.144	243.746
768.272	245.107
768.400	246.984
768.528	247.885
768.656	244.516
768.785	243.918
768.913	239.254
769.041	242.074
769.169	239.000
769.297	237.156
769.425	237.836
769.553	238.426
769.681	238.320
769.810	241.107
769.938	236.541
770.066	236.385
770.194	235.656
770.322	236.574
770.450	236.779
770.578	235.877
770.706	232.959
770.835	234.426
770.963	233.221
771.091	233.213
771.219	232.000
771.347	231.295
771.475	230.090
771.603	230.738
771.731	230.049
771.860	230.148
771.988	229.148
772.116	229.852
772.244	229.533
772.372	230.418
772.500	232.393
772.628	229.754
772.756	229.746
772.885	230.557
773.013	228.180
773.141	221.016
773.269	226.205
773.397	226.885
773.525	223.459
773.653	223.557
773.781	222.992
773.910	221.844
774.038	223.959
774.166	223.549
774.294	220.893
774.422	221.508
774.550	224.434
774.678	220.623
774.806	221.107
774.935	221.697
775.063	218.730
775.191	217.295
775.319	223.582
775.447	220.279
775.575	216.623
775.703	218.115
775.831	220.107
775.960	216.336
776.088	216.533
776.216	218.615
776.344	213.590
776.472	219.705
776.600	215.984
776.728	216.049
776.856	213.254
776.985	212.074
777.113	214.008
777.241	211.057
777.369	213.164
777.497	208.951
777.625	210.049
777.753	209.156
777.881	210.484
778.010	209.418
778.138	210.369
778.266	207.730
778.394	209.631
778.522	211.139
778.650	209.377
778.778	205.393
778.906	208.246
779.035	208.475
779.163	203.574
779.291	206.795
779.419	205.402
779.547	207.303
779.675	204.639
779.803	206.500
779.931	205.746
780.060	204.943
780.188	202.172
780.316	200.910
780.444	206.287
780.572	200.959
780.700	204.057
780.828	200.107
780.956	204.221
781.085	202.197
781.213	202.033
781.341	201.041
781.469	200.320
781.597	200.754
781.725	201.246
781.853	198.352
781.981	200.115
782.110	200.623
782.238	198.434
782.366	199.213
782.494	195.393
782.622	200.000
782.750	194.738
782.878	195.279
783.006	195.262
783.135	196.172
783.263	195.451
783.391	195.180
783.519	196.631
783.647	194.615
783.775	192.393
783.903	193.189
784.031	192.549
784.160	191.754
784.288	193.574
784.416	189.779
784.544	191.680
784.672	187.246
784.800	189.385
784.928	189.516
785.056	187.344
785.185	189.516
785.313	184.615
785.441	190.025
785.569	188.557
785.697	187.877
785.825	186.377
785.953	186.303
786.081	188.393
786.210	185.762
786.338	187.738
786.466	182.648
786.594	185.762
786.722	185.131
786.850	184.533
786.978	185.213
787.106	184.025
787.235	179.869
787.363	181.992
787.491	182.910
787.619	183.041
787.747	183.369
787.875	180.541
788.003	181.500
788.131	179.008
788.260	184.033
788.388	181.713
788.516	175.320
788.644	182.795
788.772	177.738
788.900	178.033
789.028	177.025
789.156	178.426
789.285	177.582
789.413	177.336
789.541	174.902
789.669	177.844
789.797	176.967
789.925	177.697
790.053	177.270
790.181	175.697
790.310	174.951
790.438	173.795
790.566	175.057
790.694	175.238
790.822	174.754
790.950	175.107
791.078	172.918
791.206	171.918
791.335	171.484
791.463	170.320
791.591	174.508
791.719	172.836
791.847	170.926
791.975	169.033
792.103	169.566
792.231	173.180
792.360	171.320
792.488	167.934
792.616	172.262
792.744	168.598
792.872	168.000
793.000	168.598
793.128	169.279
793.256	169.648
793.385	167.180
793.513	166.377
793.641	170.328
793.769	167.615
793.897	168.189
794.025	167.434
794.153	166.189
794.281	166.787
794.410	165.787
794.538	166.279
794.666	167.566
794.794	163.902
794.922	163.451
795.050	163.787
795.178	164.836
795.306	162.836
795.435	164.295
795.563	161.754
795.691	163.000
795.819	161.631
795.947	162.434
796.075	162.721
796.203	164.311
796.331	163.172
796.460	161.943
796.588	163.459
796.716	159.803
796.844	162.057
796.972	161.820
797.100	158.877
797.228	162.287
797.356	162.639
797.485	160.885
797.613	160.082
797.741	161.205
797.869	158.484
797.997	159.016
798.125	158.287
798.253	158.189
798.381	158.975
798.510	158.295
798.638	158.025
798.766	158.844
798.894	159.025
799.022	156.369
799.150	155.680
799.278	155.557
799.406	157.246
799.535	156.934
799.663	158.926
799.791	156.607
799.919	157.057
800.047	155.959
800.175	157.303
800.303	156.066
800.431	153.902
800.560	154.623
800.688	154.328
800.816	152.410
800.944	155.582
801.072	156.311
801.200	153.008
801.328	152.975
801.456	156.008
801.585	153.246
801.713	154.197
801.841	154.205
801.969	155.361
802.097	154.508
802.225	154.467
802.353	154.434
802.481	153.041
802.610	152.484
802.738	153.852
802.866	153.697
802.994	152.443
803.122	152.902
803.250	152.984
803.378	151.754
803.506	153.443
803.635	152.877
803.763	151.730
803.891	150.385
804.019	150.320
804.147	152.320
804.275	150.074
804.403	148.975
804.531	148.910
804.660	149.213
804.788	149.402
804.916	148.525
805.044	149.467
805.172	148.270
805.300	150.008
805.428	148.008
805.556	149.598
805.685	151.287
805.813	148.697
805.941	147.639
806.069	149.221
806.197	149.574
806.325	149.164
806.453	150.385
806.581	147.361
806.710	146.287
806.838	146.746
806.966	147.590
807.094	147.762
807.222	146.049
807.350	146.631
807.478	146.352
807.606	145.639
807.735	145.869
807.863	147.639
807.991	146.590
808.119	145.434
808.247	145.279
808.375	146.779
808.503	145.254
808.631	144.721
808.760	145.516
808.888	142.598
809.016	144.623
809.144	144.934
809.272	144.221
809.400	143.746
809.528	143.992
809.656	143.164
809.785	140.172
809.913	142.426
810.041	144.197
810.169	142.902
810.297	141.754
810.425	142.697
810.553	140.762
810.681	142.533
810.810	141.803
810.938	141.811
811.066	141.648
811.194	143.123
811.322	143.115
811.450	140.402
811.578	142.336
811.706	140.549
811.835	140.156
811.963	140.951
812.091	144.172
812.219	140.377
812.347	140.336
812.475	141.918
812.603	143.197
812.731	139.607
812.860	139.615
812.988	140.885
813.116	140.615
813.244	140.877
813.372	140.369
813.500	139.393
813.628	141.238
813.756	136.926
813.885	139.254
814.013	138.303
814.141	138.090
814.269	138.467
814.397	139.877
814.525	139.066
814.653	138.861
814.781	136.811
814.910	137.025
815.038	137.500
815.166	138.697
815.294	137.492
815.422	137.861
815.550	137.402
815.678	137.582
815.806	140.336
815.935	137.574
816.063	137.623
816.191	138.221
816.319	136.057
816.447	137.418
816.575	136.615
816.703	137.443
816.831	137.992
816.960	138.205
817.088	135.426
817.216	136.672
817.344	136.689
817.472	136.902
817.600	136.172
817.728	133.926
817.856	137.992
817.985	134.311
818.113	132.525
818.241	135.320
818.369	134.484
818.497	134.926
818.625	134.295
818.753	134.156
818.881	135.205
819.010	132.975
819.138	134.557
819.266	134.098
819.394	132.279
819.522	132.910
819.650	134.754
819.778	133.352
819.906	134.352
820.035	135.811
820.163	133.131
820.291	132.672
820.419	132.598
820.547	135.484
820.675	131.746
820.803	133.475
820.931	133.033
821.060	130.516
821.188	133.475
821.316	131.295
821.444	131.885
821.572	132.352
821.700	133.893
821.828	134.279
821.956	133.230
822.085	133.066
822.213	132.525
822.341	131.656
822.469	130.352
822.597	131.238
822.725	130.279
822.853	131.910
822.981	129.746
823.110	133.139
823.238	128.115
823.366	131.525
823.494	129.566
823.622	129.574
823.750	130.877
823.878	129.238
824.006	130.426
824.135	130.852
824.263	130.984
824.391	129.861
824.519	129.836
824.647	131.279
824.775	130.131
824.903	131.402
825.031	130.115
825.160	131.623
825.288	130.697
825.416	128.615
825.544	130.393
825.672	130.197
825.800	129.861
825.928	130.369
826.056	130.525
826.185	128.525
826.313	129.344
826.441	127.918
826.569	129.402
826.697	126.869
826.825	128.303
826.953	129.467
827.081	127.754
827.210	129.475
827.338	128.410
827.466	128.369
827.594	128.844
827.722	128.246
827.850	127.770
827.978	126.746
828.106	128.320
828.235	128.148
828.363	128.410
828.491	126.902
828.619	126.672
828.747	127.967
828.875	125.549
829.003	127.598
829.131	128.475
829.260	129.713
829.388	127.107
829.516	127.697
829.644	127.336
829.772	125.811
829.900	125.303
830.028	126.926
830.156	127.721
830.285	126.893
830.413	126.828
830.541	124.131
830.669	124.754
830.797	126.180
830.925	125.852
831.053	126.074
831.181	125.803
831.310	125.877
831.438	126.066
831.566	126.205
831.694	124.295
831.822	126.803
831.950	123.156
832.078	125.639
832.206	125.344
832.335	124.975
832.463	126.279
832.591	123.934
832.719	123.475
832.847	125.648
832.975	123.344
833.103	126.656
833.231	123.885
833.360	125.590
833.488	124.639
833.616	123.566
833.744	122.443
833.872	125.566
834.000	125.959
834.128	124.459
834.256	124.992
834.385	124.762
834.513	124.508
834.641	123.254
834.769	124.107
834.897	123.623
835.025	123.090
835.153	123.795
835.281	124.131
835.410	124.811
835.538	124.082
835.666	125.189
835.794	124.484
835.922	125.508
836.050	124.598
836.178	123.779
836.306	124.967
836.435	123.566
836.563	122.123
836.691	123.467
836.819	122.713
836.947	121.107
837.075	123.393
837.203	121.025
837.331	123.369
837.460	123.205
837.588	122.221
837.716	122.525
837.844	124.344
837.972	122.975
838.100	122.303
838.228	121.008
838.356	122.410
838.485	119.967
838.613	123.893
838.741	121.656
838.869	122.418
838.997	121.361
839.125	119.484
839.253	120.566
839.381	122.754
839.510	121.131
839.638	120.311
839.766	121.057
839.894	120.975
840.022	122.205
840.150	121.730
840.278	120.361
840.406	120.787
840.535	122.090
840.663	119.582
840.791	121.287
840.919	120.574
841.047	120.762
841.175	120.549
841.303	119.746
841.431	121.516
841.560	120.615
841.688	120.180
841.816	120.697
841.944	118.902
842.072	118.262
842.200	120.713
842.328	119.902
842.456	119.910
842.585	120.754
842.713	120.516
842.841	120.344
842.969	120.221
843.097	120.205
843.225	120.738
843.353	120.090
843.481	119.492
843.610	120.975
843.738	120.148
843.866	117.992
