70-130-90_at_679.99nm_cut_at_1283.50Y_01.dat
24.01.2024
11:34:48
cut middle at Y: 1283.50
top cursor: 1343 down cursor: 1224 mean of: 119 lines , 2560 datapoints
wavelength(nm)	intensity[arb. units]
515.994	527.681
516.122	504.580
516.250	492.000
516.378	481.790
516.506	488.008
516.635	493.294
516.763	494.420
516.891	495.454
517.019	497.471
517.147	493.412
517.275	497.773
517.403	497.790
517.531	496.504
517.660	496.697
517.788	495.765
517.916	494.092
518.044	492.714
518.172	501.269
518.300	496.462
518.428	495.109
518.556	498.168
518.685	495.487
518.813	498.008
518.941	502.731
519.069	500.202
519.197	501.218
519.325	510.697
519.453	503.824
519.581	509.109
519.710	504.269
519.838	507.134
519.966	508.706
520.094	516.874
520.222	513.193
520.350	515.639
520.478	517.706
520.606	514.706
520.735	515.403
520.863	519.336
520.991	525.361
521.119	524.975
521.247	533.563
521.375	528.151
521.503	532.899
521.631	530.092
521.760	534.563
521.888	535.412
522.016	532.933
522.144	532.613
522.272	531.420
522.400	537.815
522.528	537.555
522.656	536.605
522.785	541.387
522.913	543.076
523.041	533.235
523.169	534.487
523.297	531.857
523.425	540.891
523.553	543.655
523.681	534.571
523.810	542.387
523.938	549.261
524.066	542.782
524.194	536.622
524.322	547.437
524.450	536.059
524.578	531.555
524.706	545.773
524.835	542.118
524.963	544.126
525.091	544.126
525.219	545.269
525.347	542.185
525.475	541.798
525.603	543.849
525.731	546.924
525.860	548.487
525.988	544.059
526.116	541.832
526.244	542.916
526.372	542.605
526.500	540.210
526.628	550.966
526.756	543.235
526.885	548.723
527.013	546.277
527.141	547.420
527.269	547.496
527.397	556.496
527.525	550.513
527.653	552.412
527.781	544.739
527.910	555.067
528.038	552.748
528.166	550.891
528.294	558.807
528.422	551.958
528.550	556.479
528.678	561.261
528.806	559.538
528.935	562.445
529.063	568.042
529.191	563.084
529.319	565.454
529.447	558.723
529.575	566.950
529.703	562.966
529.831	571.286
529.960	567.714
530.088	572.639
530.216	573.143
530.344	574.924
530.472	575.218
530.600	572.714
530.728	576.983
530.856	581.471
530.985	576.882
531.113	575.496
531.241	580.412
531.369	580.084
531.497	581.210
531.625	580.387
531.753	573.546
531.881	580.176
532.010	583.387
532.138	573.975
532.266	571.748
532.394	581.479
532.522	579.151
532.650	578.958
532.778	583.244
532.906	575.731
533.035	575.395
533.163	583.244
533.291	578.353
533.419	572.160
533.547	576.185
533.675	577.160
533.803	575.933
533.931	575.739
534.060	583.361
534.188	579.126
534.316	579.924
534.444	575.529
534.572	574.798
534.700	577.807
534.828	580.672
534.956	590.118
535.085	587.672
535.213	584.857
535.341	581.655
535.469	585.143
535.597	588.555
535.725	596.471
535.853	593.975
535.981	586.059
536.110	596.689
536.238	597.403
536.366	600.639
536.494	596.479
536.622	595.672
536.750	598.605
536.878	605.731
537.006	605.445
537.135	604.454
537.263	606.151
537.391	608.966
537.519	605.882
537.647	613.487
537.775	614.479
537.903	612.168
538.031	615.202
538.160	614.025
538.288	611.765
538.416	616.832
538.544	618.639
538.672	618.437
538.800	619.697
538.928	621.437
539.056	628.664
539.185	626.311
539.313	625.210
539.441	620.882
539.569	623.731
539.697	627.849
539.825	632.000
539.953	624.277
540.081	621.597
540.210	625.008
540.338	628.697
540.466	628.345
540.594	628.445
540.722	621.151
540.850	627.462
540.978	627.462
541.106	628.328
541.235	635.882
541.363	621.882
541.491	632.185
541.619	627.681
541.747	624.891
541.875	630.429
542.003	623.445
542.131	628.151
542.260	635.303
542.388	636.303
542.516	633.151
542.644	631.571
542.772	631.798
542.900	634.588
543.028	635.689
543.156	634.899
543.285	635.580
543.413	634.563
543.541	645.193
543.669	643.798
543.797	635.815
543.925	643.874
544.053	639.008
544.181	642.849
544.310	639.513
544.438	638.538
544.566	640.160
544.694	643.731
544.822	644.395
544.950	642.958
545.078	642.050
545.206	647.521
545.335	649.378
545.463	639.739
545.591	644.832
545.719	644.193
545.847	647.924
545.975	651.588
546.103	651.101
546.231	651.966
546.360	651.202
546.488	658.193
546.616	652.664
546.744	651.378
546.872	651.202
547.000	653.874
547.128	662.160
547.256	654.193
547.385	656.672
547.513	658.252
547.641	662.395
547.769	663.975
547.897	657.101
548.025	670.790
548.153	665.420
548.281	664.412
548.410	665.513
548.538	661.580
548.666	671.521
548.794	660.916
548.922	661.782
549.050	672.891
549.178	671.975
549.306	675.042
549.435	667.798
549.563	673.513
549.691	664.790
549.819	677.824
549.947	671.689
550.075	672.210
550.203	666.975
550.331	665.555
550.460	668.479
550.588	663.563
550.716	676.042
550.844	672.185
550.972	668.319
551.100	663.529
551.228	667.546
551.356	664.571
551.485	663.487
551.613	664.176
551.741	660.143
551.869	652.773
551.997	656.000
552.125	657.092
552.253	659.000
552.381	657.605
552.510	659.950
552.638	657.605
552.766	659.983
552.894	651.588
553.022	655.504
553.150	659.210
553.278	658.647
553.406	654.496
553.535	653.042
553.663	658.597
553.791	649.597
553.919	652.244
554.047	657.370
554.175	658.134
554.303	657.840
554.431	658.403
554.560	660.513
554.688	662.966
554.816	659.908
554.944	660.891
555.072	656.261
555.200	661.042
555.328	657.739
555.456	661.143
555.585	663.429
555.713	669.807
555.841	674.849
555.969	670.899
556.097	672.941
556.225	671.857
556.353	682.899
556.481	671.008
556.610	679.353
556.738	681.017
556.866	688.597
556.994	675.294
557.122	678.008
557.250	680.706
557.378	686.328
557.506	681.462
557.635	687.403
557.763	685.647
557.891	695.798
558.019	679.076
558.147	695.059
558.275	689.731
558.403	695.714
558.531	697.815
558.660	694.218
558.788	703.672
558.916	695.723
559.044	691.034
559.172	697.353
559.300	701.227
559.428	704.235
559.556	706.218
559.685	703.983
559.813	699.790
559.941	694.151
560.069	705.244
560.197	704.739
560.325	710.294
560.453	702.597
560.581	706.782
560.710	707.529
560.838	704.235
560.966	710.941
561.094	715.866
561.222	706.899
561.350	710.286
561.478	701.395
561.606	707.697
561.735	701.429
561.863	701.000
561.991	705.689
562.119	701.193
562.247	703.588
562.375	708.378
562.503	704.487
562.631	703.487
562.760	701.126
562.888	705.025
563.016	701.429
563.144	707.403
563.272	702.454
563.400	697.042
563.528	701.866
563.656	710.891
563.785	702.765
563.913	697.655
564.041	699.874
564.169	705.008
564.297	702.647
564.425	703.689
564.553	710.739
564.681	712.218
564.810	707.622
564.938	710.479
565.066	705.555
565.194	715.193
565.322	709.765
565.450	710.597
565.578	719.924
565.706	712.277
565.835	713.555
565.963	711.790
566.091	712.059
566.219	718.756
566.347	716.151
566.475	719.126
566.603	723.185
566.731	724.496
566.860	720.773
566.988	720.496
567.116	729.109
567.244	732.723
567.372	731.613
567.500	741.563
567.628	732.109
567.756	733.311
567.885	747.622
568.013	745.832
568.141	747.731
568.269	738.034
568.397	738.345
568.525	739.370
568.653	753.983
568.781	751.126
568.910	754.950
569.038	755.076
569.166	747.513
569.294	757.546
569.422	763.748
569.550	763.605
569.678	763.420
569.806	762.008
569.935	760.840
570.063	775.857
570.191	771.395
570.319	777.815
570.447	771.647
570.575	772.983
570.703	777.908
570.831	788.378
570.960	778.471
571.088	788.731
571.216	780.336
571.344	786.697
571.472	784.555
571.600	793.370
571.728	787.227
571.856	788.672
571.985	795.109
572.113	795.361
572.241	799.345
572.369	803.286
572.497	804.462
572.625	804.597
572.753	797.916
572.881	806.538
573.010	801.084
573.138	814.924
573.266	815.714
573.394	817.345
573.522	811.067
573.650	805.487
573.778	812.143
573.906	808.958
574.035	811.286
574.163	814.857
574.291	812.521
574.419	813.025
574.547	822.261
574.675	816.613
574.803	814.992
574.931	815.908
575.060	826.252
575.188	820.235
575.316	816.529
575.444	826.588
575.572	824.076
575.700	818.218
575.828	822.588
575.956	825.471
576.085	814.714
576.213	832.126
576.341	817.185
576.469	821.521
576.597	818.950
576.725	822.218
576.853	819.294
576.981	826.597
577.110	821.151
577.238	825.882
577.366	824.639
577.494	818.454
577.622	821.933
577.750	822.647
577.878	822.059
578.006	832.353
578.135	831.101
578.263	824.681
578.391	837.622
578.519	819.395
578.647	831.235
578.775	822.218
578.903	822.882
579.031	830.521
579.160	825.504
579.288	826.773
579.416	829.773
579.544	829.160
579.672	835.303
579.800	836.840
579.928	833.798
580.056	834.353
580.185	833.933
580.313	834.950
580.441	839.160
580.569	834.353
580.697	829.706
580.825	841.790
580.953	846.059
581.081	847.866
581.210	848.807
581.338	856.303
581.466	857.580
581.594	857.261
581.722	853.193
581.850	854.076
581.978	858.235
582.106	857.630
582.235	869.353
582.363	851.521
582.491	861.672
582.619	861.319
582.747	873.429
582.875	869.303
583.003	877.134
583.131	882.294
583.260	888.311
583.388	885.042
583.516	887.252
583.644	889.034
583.772	888.176
583.900	900.261
584.028	899.840
584.156	892.857
584.285	906.689
584.413	900.681
584.541	908.899
584.669	907.017
584.797	906.966
584.925	915.462
585.053	922.437
585.181	918.496
585.310	920.840
585.438	931.244
585.566	921.487
585.694	941.101
585.822	942.151
585.950	939.218
586.078	947.773
586.206	946.059
586.335	951.193
586.463	945.664
586.591	956.151
586.719	956.731
586.847	961.084
586.975	962.966
587.103	963.756
587.231	966.756
587.360	962.849
587.488	972.681
587.616	971.807
587.744	976.849
587.872	968.924
588.000	976.756
588.128	979.891
588.256	979.076
588.385	986.538
588.513	978.840
588.641	981.975
588.769	988.286
588.897	986.824
589.025	979.983
589.153	985.731
589.281	987.950
589.410	991.975
589.538	987.815
589.666	993.529
589.794	986.815
589.922	1000.941
590.050	1002.966
590.178	986.193
590.306	996.697
590.435	1003.639
590.563	999.908
590.691	1009.067
590.819	996.983
590.947	1013.160
591.075	1002.714
591.203	1005.975
591.331	1018.412
591.460	1022.092
591.588	1006.773
591.716	1024.933
591.844	1020.555
591.972	1023.933
592.100	1022.185
592.228	1019.361
592.356	1023.361
592.485	1022.555
592.613	1024.983
592.741	1031.118
592.869	1035.294
592.997	1037.655
593.125	1046.681
593.253	1056.084
593.381	1039.244
593.510	1054.748
593.638	1046.672
593.766	1054.345
593.894	1048.387
594.022	1050.605
594.150	1058.042
594.278	1061.622
594.406	1059.849
594.535	1053.672
594.663	1065.941
594.791	1057.958
594.919	1072.723
595.047	1074.244
595.175	1081.336
595.303	1083.874
595.431	1075.378
595.560	1095.261
595.688	1085.269
595.816	1085.639
595.944	1107.252
596.072	1103.269
596.200	1097.143
596.328	1093.454
596.456	1103.403
596.585	1102.118
596.713	1110.832
596.841	1114.555
596.969	1111.210
597.097	1123.790
597.225	1128.840
597.353	1136.387
597.481	1127.378
597.610	1129.067
597.738	1132.521
597.866	1138.261
597.994	1140.311
598.122	1142.319
598.250	1139.193
598.378	1141.983
598.506	1149.294
598.635	1144.134
598.763	1160.824
598.891	1163.462
599.019	1166.067
599.147	1164.319
599.275	1158.294
599.403	1169.782
599.531	1163.723
599.660	1171.496
599.788	1180.487
599.916	1176.723
600.044	1182.639
600.172	1183.126
600.300	1185.731
600.428	1188.235
600.556	1190.966
600.685	1203.672
600.813	1203.008
600.941	1214.429
601.069	1215.563
601.197	1219.101
601.325	1204.966
601.453	1224.563
601.581	1230.185
601.710	1226.160
601.838	1240.252
601.966	1230.782
602.094	1248.109
602.222	1235.924
602.350	1240.370
602.478	1252.370
602.606	1261.286
602.735	1259.983
602.863	1271.513
602.991	1269.445
603.119	1281.168
603.247	1273.571
603.375	1290.202
603.503	1280.151
603.631	1296.731
603.760	1286.437
603.888	1298.025
604.016	1299.689
604.144	1304.025
604.272	1306.336
604.400	1321.739
604.528	1316.092
604.656	1317.546
604.785	1320.815
604.913	1335.345
605.041	1345.790
605.169	1343.008
605.297	1336.496
605.425	1342.395
605.553	1360.168
605.681	1351.151
605.810	1349.849
605.938	1357.303
606.066	1353.345
606.194	1362.748
606.322	1358.580
606.450	1368.706
606.578	1372.126
606.706	1377.513
606.835	1380.454
606.963	1381.891
607.091	1383.832
607.219	1393.151
607.347	1391.739
607.475	1397.235
607.603	1400.261
607.731	1396.756
607.860	1379.571
607.988	1403.345
608.116	1401.605
608.244	1408.092
608.372	1406.966
608.500	1408.958
608.628	1411.412
608.756	1407.739
608.885	1409.454
609.013	1415.815
609.141	1412.261
609.269	1414.681
609.397	1413.303
609.525	1416.521
609.653	1412.252
609.781	1417.101
609.910	1412.681
610.038	1416.504
610.166	1432.899
610.294	1410.555
610.422	1431.403
610.550	1427.798
610.678	1425.328
610.806	1428.815
610.935	1436.672
611.063	1432.353
611.191	1425.782
611.319	1422.731
611.447	1438.681
611.575	1435.017
611.703	1424.983
611.831	1442.151
611.960	1440.277
612.088	1439.790
612.216	1443.261
612.344	1445.286
612.472	1437.874
612.600	1447.462
612.728	1438.790
612.856	1446.815
612.985	1444.479
613.113	1440.992
613.241	1463.580
613.369	1456.454
613.497	1463.429
613.625	1463.193
613.753	1454.118
613.881	1460.773
614.010	1452.798
614.138	1460.109
614.266	1470.193
614.394	1464.496
614.522	1472.513
614.650	1481.496
614.778	1462.126
614.906	1486.655
615.035	1487.924
615.163	1487.933
615.291	1485.471
615.419	1497.378
615.547	1480.471
615.675	1494.916
615.803	1494.546
615.931	1517.588
616.060	1509.975
616.188	1506.487
616.316	1501.412
616.444	1510.353
616.572	1508.403
616.700	1523.563
616.828	1540.042
616.956	1531.706
617.085	1545.697
617.213	1529.933
617.341	1530.571
617.469	1538.529
617.597	1548.689
617.725	1552.193
617.853	1542.891
617.981	1553.672
618.110	1565.311
618.238	1566.714
618.366	1585.252
618.494	1580.756
618.622	1573.782
618.750	1581.269
618.878	1576.412
619.006	1586.504
619.135	1602.630
619.263	1597.185
619.391	1586.261
619.519	1603.101
619.647	1615.840
619.775	1604.723
619.903	1622.891
620.031	1625.395
620.160	1635.193
620.288	1624.933
620.416	1649.605
620.544	1641.185
620.672	1647.689
620.800	1656.479
620.928	1661.496
621.056	1647.244
621.185	1657.151
621.313	1657.571
621.441	1681.487
621.569	1688.689
621.697	1685.378
621.825	1692.622
621.953	1690.479
622.081	1700.866
622.210	1693.647
622.338	1710.622
622.466	1702.899
622.594	1719.798
622.722	1717.672
622.850	1737.437
622.978	1736.387
623.106	1730.697
623.235	1739.824
623.363	1743.681
623.491	1739.076
623.619	1734.084
623.747	1737.076
623.875	1757.118
624.003	1751.193
624.131	1751.655
624.260	1732.782
624.388	1776.689
624.516	1782.605
624.644	1755.345
624.772	1772.866
624.900	1783.336
625.028	1757.387
625.156	1796.042
625.285	1767.555
625.413	1783.429
625.541	1776.748
625.669	1778.655
625.797	1783.840
625.925	1789.109
626.053	1784.664
626.181	1799.042
626.310	1792.538
626.438	1791.218
626.566	1794.118
626.694	1806.395
626.822	1797.916
626.950	1813.429
627.078	1816.252
627.206	1809.731
627.335	1821.429
627.463	1814.630
627.591	1814.445
627.719	1815.866
627.847	1832.160
627.975	1829.681
628.103	1821.882
628.231	1845.933
628.360	1817.210
628.488	1824.874
628.616	1831.235
628.744	1816.345
628.872	1825.487
629.000	1816.924
629.128	1824.983
629.256	1847.563
629.385	1839.899
629.513	1827.202
629.641	1853.714
629.769	1838.042
629.897	1847.395
630.025	1837.227
630.153	1857.849
630.281	1839.471
630.410	1837.269
630.538	1864.151
630.666	1851.723
630.794	1841.975
630.922	1851.748
631.050	1841.050
631.178	1856.941
631.306	1855.202
631.435	1854.622
631.563	1870.420
631.691	1845.782
631.819	1860.706
631.947	1867.647
632.075	1868.773
632.203	1870.941
632.331	1862.277
632.460	1861.454
632.588	1873.134
632.716	1877.303
632.844	1873.504
632.972	1863.790
633.100	1870.328
633.228	1884.143
633.356	1861.143
633.485	1868.345
633.613	1887.210
633.741	1874.714
633.869	1870.395
633.997	1877.395
634.125	1879.529
634.253	1870.353
634.381	1867.697
634.510	1879.916
634.638	1860.311
634.766	1867.756
634.894	1865.445
635.022	1860.739
635.150	1861.840
635.278	1885.395
635.406	1873.370
635.535	1883.387
635.663	1883.311
635.791	1860.370
635.919	1881.193
636.047	1872.597
636.175	1858.210
636.303	1880.941
636.431	1882.403
636.560	1875.832
636.688	1871.151
636.816	1878.118
636.944	1868.017
637.072	1892.454
637.200	1874.143
637.328	1868.807
637.456	1873.689
637.585	1872.798
637.713	1885.294
637.841	1864.025
637.969	1875.353
638.097	1880.958
638.225	1883.950
638.353	1892.622
638.481	1885.639
638.610	1889.765
638.738	1895.672
638.866	1883.151
638.994	1888.857
639.122	1885.277
639.250	1892.042
639.378	1892.513
639.506	1868.714
639.635	1891.941
639.763	1873.185
639.891	1890.235
640.019	1902.370
640.147	1894.160
640.275	1886.445
640.403	1890.798
640.531	1875.672
640.660	1889.185
640.788	1904.487
640.916	1895.908
641.044	1909.933
641.172	1897.244
641.300	1909.008
641.428	1920.387
641.556	1920.832
641.685	1907.513
641.813	1900.067
641.941	1912.992
642.069	1911.462
642.197	1909.622
642.325	1906.714
642.453	1912.235
642.581	1936.076
642.710	1916.966
642.838	1934.840
642.966	1933.328
643.094	1924.067
643.222	1924.605
643.350	1924.151
643.478	1926.395
643.606	1926.739
643.735	1926.487
643.863	1912.261
643.991	1937.563
644.119	1923.319
644.247	1926.975
644.375	1930.908
644.503	1939.328
644.631	1941.437
644.760	1938.664
644.888	1945.496
645.016	1935.697
645.144	1959.479
645.272	1923.622
645.400	1942.311
645.528	1928.378
645.656	1918.655
645.785	1928.882
645.913	1943.681
646.041	1940.992
646.169	1919.672
646.297	1918.647
646.425	1940.328
646.553	1905.697
646.681	1925.042
646.810	1920.437
646.938	1949.529
647.066	1914.303
647.194	1915.118
647.322	1918.647
647.450	1897.471
647.578	1922.992
647.706	1903.462
647.835	1919.218
647.963	1894.126
648.091	1909.168
648.219	1904.487
648.347	1894.454
648.475	1895.345
648.603	1889.479
648.731	1902.185
648.860	1876.151
648.988	1891.336
649.116	1888.345
649.244	1870.580
649.372	1865.723
649.500	1872.084
649.628	1866.563
649.756	1859.118
649.885	1859.034
650.013	1850.941
650.141	1846.697
650.269	1832.723
650.397	1837.008
650.525	1841.613
650.653	1833.891
650.781	1839.403
650.910	1819.975
651.038	1816.697
651.166	1813.345
651.294	1809.992
651.422	1796.176
651.550	1796.723
651.678	1785.689
651.806	1790.933
651.935	1801.891
652.063	1773.824
652.191	1786.017
652.319	1778.445
652.447	1763.555
652.575	1752.412
652.703	1739.891
652.831	1756.437
652.960	1744.824
653.088	1744.353
653.216	1726.134
653.344	1736.218
653.472	1736.714
653.600	1732.462
653.728	1729.773
653.856	1714.748
653.985	1725.874
654.113	1715.008
654.241	1717.143
654.369	1700.059
654.497	1721.521
654.625	1703.807
654.753	1703.471
654.881	1703.916
655.010	1695.252
655.138	1696.059
655.266	1692.765
655.394	1673.941
655.522	1677.008
655.650	1669.445
655.778	1682.429
655.906	1676.807
656.035	1671.521
656.163	1661.387
656.291	1665.328
656.419	1662.378
656.547	1661.412
656.675	1649.496
656.803	1655.277
656.931	1649.261
657.060	1652.849
657.188	1641.908
657.316	1645.109
657.444	1655.311
657.572	1639.891
657.700	1631.605
657.828	1633.748
657.956	1635.597
658.085	1642.303
658.213	1624.975
658.341	1622.714
658.469	1630.336
658.597	1628.429
658.725	1632.857
658.853	1610.824
658.981	1603.782
659.110	1603.143
659.238	1614.109
659.366	1604.328
659.494	1592.807
659.622	1601.882
659.750	1590.076
659.878	1595.361
660.006	1599.227
660.135	1590.563
660.263	1590.269
660.391	1583.588
660.519	1587.739
660.647	1575.597
660.775	1580.773
660.903	1568.563
661.031	1567.756
661.160	1551.429
661.288	1574.975
661.416	1579.857
661.544	1560.622
661.672	1548.084
661.800	1552.286
661.928	1544.151
662.056	1541.000
662.185	1540.824
662.313	1528.941
662.441	1550.118
662.569	1531.555
662.697	1538.756
662.825	1528.101
662.953	1532.109
663.081	1521.462
663.210	1527.790
663.338	1520.210
663.466	1511.950
663.594	1499.261
663.722	1492.950
663.850	1485.824
663.978	1493.622
664.106	1502.546
664.235	1496.807
664.363	1497.361
664.491	1478.782
664.619	1486.076
664.747	1480.765
664.875	1465.252
665.003	1472.109
665.131	1480.235
665.260	1475.597
665.388	1455.992
665.516	1458.538
665.644	1447.042
665.772	1459.882
665.900	1457.958
666.028	1455.681
666.156	1439.824
666.285	1442.252
666.413	1455.025
666.541	1439.723
666.669	1436.571
666.797	1426.849
666.925	1431.613
667.053	1444.294
667.181	1420.160
667.310	1411.017
667.438	1405.950
667.566	1407.782
667.694	1416.546
667.822	1413.261
667.950	1402.437
668.078	1400.202
668.206	1403.101
668.335	1395.126
668.463	1406.613
668.591	1381.975
668.719	1383.319
668.847	1380.697
668.975	1369.210
669.103	1369.832
669.231	1384.387
669.360	1375.723
669.488	1378.034
669.616	1358.311
669.744	1371.008
669.872	1350.395
670.000	1363.950
670.128	1347.731
670.256	1344.941
670.385	1333.748
670.513	1347.538
670.641	1329.193
670.769	1339.496
670.897	1322.176
671.025	1328.588
671.153	1334.378
671.281	1330.555
671.410	1325.050
671.538	1314.664
671.666	1312.202
671.794	1311.319
671.922	1306.328
672.050	1297.244
672.178	1304.983
672.306	1286.555
672.435	1290.151
672.563	1292.261
672.691	1283.681
672.819	1276.790
672.947	1268.202
673.075	1262.218
673.203	1264.403
673.331	1256.782
673.460	1258.471
673.588	1250.017
673.716	1253.218
673.844	1246.025
673.972	1252.454
674.100	1241.899
674.228	1241.756
674.356	1220.042
674.485	1215.395
674.613	1217.605
674.741	1221.202
674.869	1216.185
674.997	1202.681
675.125	1205.555
675.253	1185.807
675.381	1191.076
675.510	1186.168
675.638	1173.571
675.766	1182.546
675.894	1180.513
676.022	1176.378
676.150	1165.983
676.278	1174.538
676.406	1164.210
676.535	1148.261
676.663	1142.773
676.791	1143.160
676.919	1134.471
677.047	1140.773
677.175	1127.580
677.303	1132.571
677.431	1126.857
677.560	1115.454
677.688	1117.958
677.816	1099.756
677.944	1100.655
678.072	1099.311
678.200	1104.496
678.328	1090.798
678.456	1082.807
678.585	1074.101
678.713	1076.277
678.841	1071.790
678.969	1076.899
679.097	1069.941
679.225	1066.529
679.353	1058.429
679.481	1056.202
679.610	1059.941
679.738	1045.529
679.866	1041.160
679.994	1040.025
680.122	1040.773
680.250	1028.983
680.378	1034.958
680.506	1016.025
680.635	1020.319
680.763	1022.193
680.891	1007.412
681.019	1011.193
681.147	1013.311
681.275	994.613
681.403	1002.008
681.531	993.832
681.660	990.664
681.788	978.261
681.916	982.529
682.044	979.697
682.172	969.151
682.300	959.513
682.428	964.151
682.556	963.151
682.685	970.924
682.813	962.235
682.941	958.227
683.069	948.672
683.197	950.529
683.325	937.168
683.453	939.076
683.581	930.908
683.710	928.126
683.838	931.034
683.966	926.143
684.094	924.739
684.222	926.387
684.350	913.050
684.478	922.202
684.606	925.513
684.735	909.034
684.863	909.496
684.991	900.513
685.119	900.773
685.247	890.328
685.375	879.210
685.503	894.008
685.631	899.992
685.760	888.403
685.888	882.748
686.016	880.101
686.144	874.109
686.272	868.319
686.400	876.555
686.528	863.815
686.656	874.218
686.785	859.908
686.913	863.000
687.041	857.555
687.169	851.378
687.297	853.639
687.425	850.445
687.553	845.353
687.681	850.412
687.810	843.025
687.938	842.252
688.066	846.824
688.194	837.924
688.322	834.092
688.450	824.924
688.578	829.824
688.706	832.538
688.835	823.966
688.963	829.143
689.091	821.059
689.219	812.118
689.347	811.748
689.475	807.479
689.603	800.244
689.731	809.092
689.860	805.277
689.988	808.588
690.116	798.370
690.244	796.664
690.372	797.059
690.500	791.429
690.628	797.807
690.756	794.555
690.885	789.672
691.013	778.168
691.141	781.798
691.269	783.798
691.397	770.941
691.525	777.143
691.653	779.395
691.781	770.849
691.910	771.723
692.038	761.697
692.166	761.479
692.294	755.891
692.422	754.790
692.550	755.681
692.678	753.084
692.806	749.378
692.935	745.008
693.063	743.958
693.191	738.277
693.319	736.504
693.447	734.067
693.575	737.546
693.703	734.134
693.831	735.723
693.960	720.924
694.088	724.916
694.216	713.412
694.344	719.176
694.472	716.008
694.600	707.277
694.728	710.714
694.856	705.185
694.985	703.966
695.113	699.303
695.241	698.252
695.369	697.681
695.497	697.655
695.625	693.487
695.753	695.261
695.881	683.672
696.010	676.487
696.138	679.563
696.266	675.563
696.394	675.471
696.522	669.084
696.650	660.521
696.778	669.395
696.906	658.042
697.035	666.395
697.163	655.933
697.291	652.983
697.419	650.546
697.547	641.563
697.675	648.933
697.803	641.706
697.931	638.025
698.060	631.487
698.188	629.849
698.316	633.454
698.444	623.000
698.572	624.983
698.700	631.403
698.828	627.235
698.956	609.479
699.085	616.286
699.213	608.084
699.341	611.059
699.469	603.941
699.597	613.193
699.725	606.664
699.853	596.109
699.981	605.723
700.110	593.891
700.238	596.160
700.366	586.025
700.494	583.613
700.622	588.311
700.750	580.218
700.878	582.647
701.006	573.387
701.135	572.655
701.263	575.118
701.391	571.664
701.519	574.193
701.647	567.000
701.775	565.941
701.903	566.244
702.031	567.513
702.160	564.933
702.288	560.454
702.416	555.765
702.544	555.269
702.672	549.025
702.800	547.235
702.928	552.950
703.056	543.958
703.185	541.143
703.313	539.067
703.441	534.513
703.569	539.101
703.697	538.891
703.825	531.454
703.953	539.597
704.081	528.546
704.210	529.160
704.338	531.958
704.466	524.311
704.594	525.950
704.722	521.294
704.850	520.563
704.978	519.748
705.106	513.765
705.235	508.908
705.363	511.210
705.491	511.336
705.619	509.521
705.747	506.042
705.875	503.706
706.003	503.336
706.131	504.975
706.260	500.261
706.388	492.134
706.516	493.429
706.644	491.798
706.772	486.840
706.900	487.261
707.028	484.891
707.156	478.689
707.285	479.807
707.413	473.487
707.541	471.294
707.669	470.092
707.797	470.294
707.925	467.647
708.053	473.420
708.181	467.294
708.310	465.378
708.438	464.479
708.566	459.966
708.694	459.336
708.822	455.731
708.950	457.387
709.078	451.269
709.206	454.008
709.335	450.076
709.463	447.017
709.591	446.420
709.719	439.185
709.847	443.857
709.975	439.176
710.103	441.370
710.231	441.563
710.360	437.336
710.488	431.387
710.616	424.655
710.744	430.824
710.872	425.353
711.000	422.639
711.128	419.513
711.256	415.269
711.385	415.983
711.513	416.092
711.641	411.849
711.769	416.487
711.897	413.975
712.025	405.437
712.153	409.504
712.281	405.529
712.410	404.471
712.538	403.134
712.666	402.336
712.794	400.529
712.922	401.908
713.050	397.849
713.178	391.874
713.306	396.067
713.435	390.101
713.563	397.605
713.691	393.798
713.819	393.630
713.947	380.210
714.075	382.118
714.203	388.664
714.331	383.790
714.460	381.008
714.588	378.731
714.716	377.176
714.844	374.252
714.972	369.218
715.100	374.210
715.228	371.563
715.356	371.143
715.485	369.269
715.613	366.328
715.741	367.101
715.869	368.218
715.997	362.966
716.125	357.303
716.253	359.151
716.381	363.000
716.510	354.218
716.638	355.655
716.766	353.681
716.894	358.891
717.022	351.336
717.150	353.739
717.278	353.143
717.406	349.849
717.535	349.437
717.663	348.336
717.791	350.336
717.919	345.042
718.047	341.647
718.175	343.706
718.303	341.555
718.431	338.672
718.560	341.429
718.688	336.311
718.816	335.000
718.944	332.101
719.072	336.143
719.200	334.303
719.328	334.311
719.456	332.336
719.585	332.252
719.713	329.395
719.841	328.176
719.969	327.807
720.097	320.714
720.225	323.723
720.353	325.109
720.481	324.479
720.610	321.462
720.738	318.613
720.866	317.664
720.994	320.437
721.122	319.185
721.250	316.664
721.378	313.605
721.506	311.210
721.635	313.782
721.763	309.874
721.891	312.664
722.019	307.597
722.147	308.403
722.275	305.311
722.403	304.630
722.531	306.345
722.660	304.874
722.788	301.765
722.916	301.454
723.044	298.286
723.172	297.983
723.300	300.748
723.428	297.723
723.556	297.336
723.685	294.017
723.813	299.487
723.941	290.908
724.069	295.345
724.197	293.034
724.325	291.101
724.453	289.681
724.581	283.622
724.710	283.647
724.838	283.429
724.966	283.866
725.094	285.109
725.222	280.756
725.350	280.286
725.478	279.437
725.606	280.429
725.735	273.597
725.863	276.773
725.991	272.639
726.119	273.067
726.247	271.403
726.375	275.798
726.503	273.034
726.631	269.059
726.760	268.126
726.888	266.025
727.016	265.092
727.144	266.798
727.272	266.387
727.400	260.731
727.528	261.050
727.656	263.571
727.785	256.445
727.913	261.151
728.041	256.723
728.169	259.244
728.297	256.168
728.425	257.395
728.553	252.059
728.681	254.731
728.810	252.546
728.938	250.269
729.066	251.773
729.194	253.571
729.322	251.168
729.450	247.807
729.578	246.647
729.706	248.773
729.835	247.277
729.963	246.387
730.091	244.034
730.219	244.395
730.347	244.235
730.475	238.496
730.603	239.513
730.731	240.067
730.860	236.042
730.988	238.437
731.116	237.597
731.244	236.437
731.372	235.672
731.500	236.479
731.628	233.134
731.756	233.202
731.885	233.950
732.013	232.235
732.141	233.218
732.269	231.479
732.397	230.034
732.525	231.193
732.653	228.487
732.781	229.916
732.910	229.235
733.038	226.361
733.166	226.084
733.294	224.185
733.422	226.370
733.550	225.092
733.678	228.210
733.806	227.118
733.935	225.151
734.063	219.731
734.191	222.403
734.319	221.353
734.447	220.176
734.575	219.412
734.703	217.487
734.831	220.025
734.960	216.008
735.088	218.176
735.216	216.261
735.344	216.748
735.472	216.471
735.600	214.000
735.728	213.176
735.856	215.882
735.985	213.992
736.113	214.882
736.241	210.840
736.369	212.479
736.497	214.227
736.625	212.950
736.753	210.378
736.881	208.521
737.010	205.118
737.138	208.924
737.266	206.244
737.394	209.227
737.522	206.378
737.650	207.303
737.778	205.109
737.906	206.739
738.035	203.294
738.163	203.084
738.291	203.513
738.419	204.277
738.547	200.353
738.675	200.689
738.803	199.168
738.931	200.824
739.060	199.218
739.188	199.874
739.316	200.319
739.444	198.706
739.572	197.261
739.700	197.739
739.828	197.286
739.956	195.899
740.085	196.664
740.213	197.134
740.341	192.395
740.469	192.076
740.597	195.933
740.725	194.513
740.853	196.277
740.981	193.597
741.110	192.025
741.238	191.429
741.366	189.496
741.494	192.563
741.622	191.790
741.750	190.655
741.878	193.496
742.006	188.370
742.135	185.924
742.263	188.975
742.391	188.454
742.519	189.025
742.647	187.538
742.775	188.059
742.903	186.975
743.031	184.218
743.160	185.311
743.288	183.429
743.416	181.294
743.544	181.193
743.672	184.151
743.800	184.303
743.928	183.832
744.056	179.966
744.185	182.311
744.313	181.513
744.441	182.529
744.569	180.370
744.697	179.050
744.825	181.059
744.953	179.008
745.081	177.765
745.210	180.807
745.338	179.807
745.466	178.185
745.594	177.655
745.722	178.723
745.850	176.714
745.978	175.059
746.106	176.109
746.235	177.731
746.363	174.605
746.491	175.176
746.619	174.597
746.747	172.176
746.875	171.513
747.003	174.185
747.131	174.101
747.260	172.664
747.388	173.739
747.516	173.664
747.644	170.571
747.772	171.697
747.900	171.025
748.028	173.109
748.156	167.706
748.285	169.353
748.413	168.983
748.541	168.807
748.669	167.714
748.797	168.765
748.925	166.210
749.053	165.437
749.181	165.471
749.310	167.134
749.438	164.714
749.566	165.134
749.694	166.143
749.822	165.882
749.950	165.639
750.078	163.597
750.206	164.387
750.335	162.824
750.463	164.689
750.591	161.815
750.719	162.286
750.847	160.639
750.975	159.252
751.103	161.975
751.231	162.336
751.360	162.017
751.488	159.277
751.616	161.134
751.744	159.353
751.872	159.176
752.000	159.798
752.128	157.487
752.256	158.639
752.385	156.227
752.513	157.084
752.641	153.975
752.769	158.773
752.897	156.303
753.025	154.697
753.153	157.420
753.281	155.462
753.410	154.076
753.538	155.277
753.666	155.361
753.794	154.916
753.922	153.613
754.050	154.950
754.178	153.597
754.306	154.639
754.435	152.866
754.563	155.588
754.691	154.487
754.819	153.613
754.947	151.235
755.075	153.387
755.203	153.983
755.331	153.941
755.460	148.941
755.588	151.126
755.716	151.025
755.844	149.143
755.972	148.866
756.100	148.748
756.228	149.891
756.356	147.866
756.485	150.647
756.613	150.882
756.741	147.849
756.869	148.151
756.997	148.571
757.125	149.580
757.253	149.597
757.381	148.571
757.510	147.597
757.638	147.067
757.766	146.118
757.894	145.143
758.022	146.924
758.150	145.025
758.278	145.756
758.406	145.538
758.535	144.849
758.663	145.966
758.791	145.487
758.919	144.790
759.047	143.689
759.175	144.815
759.303	146.277
759.431	143.042
759.560	142.370
759.688	144.445
759.816	144.118
759.944	144.067
760.072	142.420
760.200	141.824
760.328	143.227
760.456	143.790
760.585	141.882
760.713	142.277
760.841	140.555
760.969	141.437
761.097	141.916
761.225	141.454
761.353	141.538
761.481	140.143
761.610	141.353
761.738	141.681
761.866	141.588
761.994	138.966
762.122	138.034
762.250	139.168
762.378	138.143
762.506	140.034
762.635	139.429
762.763	137.899
762.891	139.286
763.019	136.941
763.147	137.176
763.275	139.496
763.403	138.555
763.531	135.874
763.660	137.966
763.788	140.403
763.916	138.160
764.044	135.571
764.172	136.975
764.300	136.933
764.428	136.118
764.556	135.193
764.685	136.580
764.813	135.555
764.941	136.160
765.069	136.160
765.197	134.697
765.325	134.008
765.453	135.353
765.581	136.908
765.710	135.429
765.838	134.739
765.966	133.277
766.094	133.042
766.222	135.042
766.350	131.134
766.478	134.739
766.606	132.731
766.735	132.244
766.863	131.227
766.991	133.437
767.119	132.244
767.247	131.924
767.375	131.739
767.503	133.050
767.631	132.395
767.760	130.908
767.888	129.445
768.016	130.176
768.144	131.092
768.272	131.815
768.400	131.672
768.528	132.462
768.656	130.193
768.785	130.311
768.913	130.118
769.041	130.866
769.169	128.655
769.297	127.824
769.425	129.067
769.553	128.773
769.681	129.261
769.810	132.840
769.938	129.185
770.066	128.311
770.194	127.655
770.322	129.521
770.450	129.084
770.578	129.513
770.706	128.403
770.835	128.370
770.963	128.101
771.091	128.521
771.219	128.193
771.347	129.563
771.475	128.899
771.603	126.395
771.731	126.975
771.860	128.160
771.988	125.807
772.116	126.387
772.244	128.672
772.372	126.580
772.500	127.832
772.628	127.899
772.756	126.782
772.885	126.034
773.013	126.916
773.141	125.681
773.269	124.605
773.397	125.983
773.525	125.403
773.653	124.479
773.781	124.874
773.910	124.849
774.038	123.025
774.166	124.571
774.294	124.605
774.422	121.681
774.550	124.815
774.678	125.782
774.806	123.042
774.935	124.588
775.063	123.429
775.191	126.866
775.319	125.160
775.447	124.908
775.575	123.689
775.703	125.336
775.831	122.992
775.960	122.563
776.088	124.748
776.216	123.697
776.344	124.025
776.472	123.487
776.600	123.034
776.728	122.975
776.856	121.403
776.985	123.630
777.113	124.017
777.241	121.706
777.369	121.807
777.497	120.672
777.625	122.050
777.753	121.244
777.881	123.151
778.010	121.252
778.138	122.244
778.266	120.235
778.394	121.252
778.522	123.681
778.650	121.252
778.778	120.134
778.906	119.924
779.035	121.370
779.163	121.101
779.291	121.143
779.419	120.546
779.547	122.017
779.675	120.521
779.803	120.815
779.931	119.639
780.060	122.042
780.188	119.655
780.316	122.050
780.444	120.681
780.572	118.496
780.700	119.655
780.828	119.403
780.956	119.723
781.085	118.622
781.213	118.815
781.341	119.563
781.469	118.773
781.597	120.630
781.725	120.008
781.853	120.092
781.981	119.546
782.110	117.958
782.238	119.899
782.366	118.311
782.494	118.689
782.622	118.723
782.750	120.143
782.878	119.765
783.006	118.815
783.135	119.429
783.263	118.412
783.391	118.067
783.519	117.034
783.647	117.798
783.775	117.126
783.903	118.437
784.031	118.210
784.160	117.277
784.288	117.109
784.416	116.378
784.544	115.202
784.672	116.748
784.800	117.966
784.928	116.261
785.056	115.017
785.185	116.807
785.313	115.353
785.441	115.202
785.569	117.193
785.697	117.000
785.825	115.538
785.953	116.286
786.081	116.849
786.210	115.361
786.338	116.277
786.466	115.050
786.594	115.597
786.722	115.387
786.850	115.143
786.978	116.328
787.106	115.437
787.235	116.420
787.363	115.840
787.491	115.370
787.619	114.966
787.747	115.227
787.875	115.202
788.003	114.849
788.131	114.605
788.260	115.832
788.388	116.832
788.516	113.748
788.644	113.882
788.772	113.000
788.900	115.429
789.028	113.832
789.156	115.706
789.285	113.958
789.413	114.395
789.541	113.429
789.669	113.109
789.797	113.513
789.925	113.319
790.053	115.555
790.181	114.815
790.310	114.218
790.438	113.597
790.566	113.067
790.694	114.739
790.822	113.185
790.950	113.630
791.078	112.756
791.206	112.941
791.335	112.193
791.463	113.134
791.591	112.933
791.719	113.227
791.847	112.429
791.975	111.882
792.103	111.941
792.231	113.975
792.360	112.882
792.488	111.992
792.616	113.437
792.744	112.445
792.872	112.950
793.000	112.605
793.128	113.479
793.256	113.361
793.385	112.151
793.513	112.529
793.641	112.941
793.769	111.882
793.897	112.731
794.025	112.303
794.153	112.891
794.281	112.563
794.410	111.076
794.538	112.832
794.666	112.420
794.794	112.059
794.922	112.143
795.050	112.059
795.178	112.118
795.306	110.840
795.435	109.849
795.563	111.176
795.691	110.471
795.819	110.504
795.947	110.353
796.075	112.210
796.203	112.950
796.331	110.504
796.460	110.723
796.588	111.151
796.716	110.857
796.844	110.857
796.972	111.185
797.100	110.580
797.228	111.966
797.356	113.118
797.485	111.412
797.613	110.723
797.741	110.899
797.869	111.487
797.997	110.983
798.125	110.126
798.253	109.908
798.381	110.017
798.510	109.076
798.638	109.950
798.766	110.101
798.894	110.311
799.022	109.983
799.150	109.521
799.278	108.824
799.406	110.857
799.535	110.664
799.663	111.555
799.791	109.109
799.919	109.815
800.047	109.748
800.175	110.092
800.303	108.840
800.431	110.017
800.560	109.252
800.688	109.689
800.816	109.328
800.944	110.176
801.072	110.261
801.200	110.311
801.328	108.832
801.456	109.849
801.585	109.588
801.713	110.017
801.841	110.773
801.969	109.798
802.097	110.143
802.225	110.437
802.353	109.252
802.481	109.613
802.610	110.513
802.738	108.975
802.866	109.538
802.994	109.311
803.122	109.437
803.250	109.555
803.378	108.227
803.506	108.807
803.635	109.966
803.763	109.193
803.891	109.899
804.019	109.824
804.147	111.042
804.275	108.689
804.403	108.353
804.531	108.689
804.660	108.101
804.788	109.134
804.916	109.084
805.044	109.403
805.172	108.933
805.300	108.008
805.428	108.546
805.556	108.202
805.685	108.866
805.813	109.756
805.941	108.294
806.069	109.227
806.197	109.084
806.325	107.840
806.453	108.983
806.581	107.739
806.710	107.218
806.838	107.303
806.966	108.437
807.094	108.639
807.222	108.328
807.350	108.958
807.478	108.916
807.606	106.714
807.735	109.059
807.863	108.941
807.991	109.067
808.119	108.160
808.247	107.454
808.375	107.950
808.503	107.882
808.631	108.966
808.760	107.739
808.888	107.412
809.016	108.126
809.144	108.101
809.272	109.798
809.400	109.143
809.528	108.017
809.656	107.437
809.785	107.378
809.913	107.933
810.041	106.924
810.169	107.899
810.297	108.244
810.425	106.992
810.553	106.403
810.681	108.975
810.810	108.126
810.938	107.697
811.066	106.361
811.194	107.807
811.322	108.336
811.450	107.370
811.578	108.084
811.706	107.252
811.835	106.992
811.963	107.042
812.091	106.773
812.219	107.244
812.347	106.563
812.475	107.613
812.603	107.546
812.731	105.941
812.860	107.563
812.988	108.588
813.116	107.655
813.244	107.916
813.372	106.773
813.500	107.008
813.628	108.118
813.756	106.966
813.885	107.689
814.013	107.067
814.141	108.857
814.269	106.513
814.397	108.025
814.525	107.193
814.653	108.092
814.781	106.992
814.910	107.496
815.038	107.294
815.166	108.756
815.294	107.429
815.422	108.185
815.550	106.975
815.678	106.908
815.806	107.311
815.935	106.269
816.063	107.126
816.191	105.630
816.319	106.992
816.447	107.244
816.575	107.622
816.703	106.958
816.831	107.681
816.960	107.655
817.088	106.639
817.216	106.429
817.344	106.958
817.472	108.546
817.600	106.807
817.728	106.345
817.856	107.345
817.985	105.950
818.113	106.950
818.241	108.235
818.369	106.025
818.497	107.471
818.625	106.395
818.753	106.908
818.881	107.193
819.010	106.613
819.138	106.303
819.266	107.311
819.394	106.462
819.522	104.941
819.650	107.176
819.778	105.924
819.906	107.017
820.035	106.513
820.163	106.218
820.291	105.538
820.419	105.076
820.547	107.109
820.675	105.244
820.803	106.874
820.931	106.975
821.060	104.487
821.188	105.958
821.316	106.420
821.444	106.588
821.572	106.361
821.700	106.429
821.828	107.387
821.956	106.311
822.085	106.429
822.213	106.109
822.341	106.101
822.469	104.798
822.597	105.605
822.725	105.773
822.853	106.017
822.981	106.050
823.110	107.176
823.238	103.798
823.366	105.731
823.494	105.059
823.622	105.815
823.750	105.756
823.878	104.689
824.006	106.916
824.135	106.370
824.263	106.050
824.391	105.655
824.519	105.790
824.647	106.218
824.775	106.555
824.903	106.269
825.031	107.378
825.160	106.790
825.288	105.849
825.416	106.387
825.544	106.008
825.672	106.311
825.800	105.034
825.928	106.387
826.056	105.311
826.185	105.303
826.313	106.303
826.441	105.261
826.569	105.681
826.697	105.773
826.825	104.958
826.953	105.975
827.081	105.193
827.210	105.622
827.338	104.605
827.466	105.655
827.594	105.748
827.722	106.513
827.850	105.025
827.978	105.000
828.106	105.025
828.235	106.580
828.363	105.798
828.491	105.664
828.619	104.756
828.747	105.790
828.875	105.101
829.003	105.866
829.131	106.521
829.260	105.630
829.388	105.756
829.516	106.513
829.644	105.034
829.772	106.462
829.900	105.681
830.028	106.134
830.156	105.059
830.285	105.479
830.413	106.185
830.541	105.521
830.669	104.790
830.797	104.261
830.925	105.168
831.053	105.025
831.181	104.832
831.310	105.874
831.438	105.815
831.566	105.479
831.694	105.378
831.822	104.311
831.950	105.067
832.078	104.966
832.206	104.807
832.335	104.790
832.463	105.462
832.591	105.286
832.719	104.084
832.847	105.244
832.975	105.034
833.103	105.966
833.231	104.487
833.360	104.908
833.488	104.513
833.616	105.050
833.744	103.992
833.872	105.403
834.000	106.303
834.128	105.210
834.256	105.361
834.385	104.714
834.513	105.924
834.641	103.118
834.769	104.555
834.897	105.504
835.025	104.092
835.153	103.899
835.281	103.824
835.410	104.916
835.538	105.739
835.666	105.092
835.794	104.672
835.922	105.134
836.050	104.580
836.178	105.294
836.306	105.387
836.435	104.706
836.563	104.597
836.691	104.798
836.819	105.655
836.947	103.689
837.075	104.286
837.203	104.042
837.331	104.840
837.460	104.950
837.588	104.378
837.716	104.580
837.844	104.866
837.972	104.748
838.100	105.042
838.228	104.193
838.356	104.765
838.485	102.790
838.613	104.025
838.741	104.731
838.869	105.050
838.997	104.983
839.125	103.034
839.253	103.496
839.381	104.798
839.510	104.496
839.638	103.950
839.766	103.790
839.894	103.824
840.022	104.555
840.150	104.151
840.278	104.084
840.406	104.992
840.535	103.882
840.663	103.731
840.791	103.345
840.919	104.277
841.047	104.286
841.175	104.370
841.303	103.580
841.431	104.563
841.560	104.429
841.688	104.454
841.816	104.294
841.944	104.042
842.072	104.588
842.200	103.866
842.328	105.277
842.456	104.252
842.585	105.538
842.713	104.403
842.841	104.412
842.969	104.160
843.097	104.588
843.225	103.908
843.353	103.790
843.481	103.168
843.610	104.403
843.738	103.983
843.866	103.454
