70-140-90_at_679.99nm_cut_at_1276.00Y_01.dat
24.01.2024
11:37:00
cut middle at Y: 1276.00
top cursor: 1337 down cursor: 1215 mean of: 122 lines , 2560 datapoints
wavelength(nm)	intensity[arb. units]
515.994	636.574
516.122	601.746
516.250	588.303
516.378	588.787
516.506	584.893
516.635	583.123
516.763	589.467
516.891	592.852
517.019	595.525
517.147	589.279
517.275	593.500
517.403	600.066
517.531	594.000
517.660	595.689
517.788	594.016
517.916	601.721
518.044	588.615
518.172	590.254
518.300	593.689
518.428	594.074
518.556	595.852
518.685	599.033
518.813	599.279
518.941	603.205
519.069	597.549
519.197	596.016
519.325	604.393
519.453	600.762
519.581	606.402
519.710	599.549
519.838	610.713
519.966	606.254
520.094	608.107
520.222	611.582
520.350	613.607
520.478	610.943
520.606	617.902
520.735	612.730
520.863	618.787
520.991	624.943
521.119	624.443
521.247	628.189
521.375	623.377
521.503	634.180
521.631	633.082
521.760	634.410
521.888	631.967
522.016	643.549
522.144	632.598
522.272	639.762
522.400	641.582
522.528	649.885
522.656	645.049
522.785	647.992
522.913	649.852
523.041	645.705
523.169	643.623
523.297	648.803
523.425	651.344
523.553	650.238
523.681	651.549
523.810	657.246
523.938	658.451
524.066	656.869
524.194	653.426
524.322	659.615
524.450	654.049
524.578	649.131
524.706	660.557
524.835	648.377
524.963	663.139
525.091	658.836
525.219	657.410
525.347	658.975
525.475	658.295
525.603	663.730
525.731	659.074
525.860	662.328
525.988	655.180
526.116	659.533
526.244	664.672
526.372	653.189
526.500	659.131
526.628	668.475
526.756	656.664
526.885	663.934
527.013	666.033
527.141	671.795
527.269	662.451
527.397	668.270
527.525	671.410
527.653	664.189
527.781	666.959
527.910	670.533
528.038	673.180
528.166	670.893
528.294	667.131
528.422	665.418
528.550	678.369
528.678	675.123
528.806	679.836
528.935	681.770
529.063	676.361
529.191	682.525
529.319	684.754
529.447	691.328
529.575	690.795
529.703	687.426
529.831	687.352
529.960	690.336
530.088	691.475
530.216	697.516
530.344	696.459
530.472	696.475
530.600	703.402
530.728	701.967
530.856	704.041
530.985	706.238
531.113	697.967
531.241	707.246
531.369	705.680
531.497	705.434
531.625	706.877
531.753	704.377
531.881	709.295
532.010	714.033
532.138	706.803
532.266	694.541
532.394	709.320
532.522	700.172
532.650	701.254
532.778	711.402
532.906	699.352
533.035	709.189
533.163	700.713
533.291	706.434
533.419	698.057
533.547	698.410
533.675	706.090
533.803	710.967
533.931	710.320
534.060	703.107
534.188	704.918
534.316	710.328
534.444	705.516
534.572	704.713
534.700	710.443
534.828	708.279
534.956	710.787
535.085	711.287
535.213	708.713
535.341	716.148
535.469	707.713
535.597	715.221
535.725	719.672
535.853	720.549
535.981	723.131
536.110	725.303
536.238	729.590
536.366	734.574
536.494	731.328
536.622	727.139
536.750	737.492
536.878	742.131
537.006	741.590
537.135	744.557
537.263	736.000
537.391	751.230
537.519	744.246
537.647	746.549
537.775	744.344
537.903	746.648
538.031	753.139
538.160	754.918
538.288	758.541
538.416	759.164
538.544	751.508
538.672	754.451
538.800	761.025
538.928	767.516
539.056	765.410
539.185	771.828
539.313	753.852
539.441	771.689
539.569	769.156
539.697	769.590
539.825	772.336
539.953	769.902
540.081	761.451
540.210	769.549
540.338	772.525
540.466	778.049
540.594	775.008
540.722	769.418
540.850	773.016
540.978	774.041
541.106	782.033
541.235	782.074
541.363	771.975
541.491	777.820
541.619	778.615
541.747	779.697
541.875	780.730
542.003	777.607
542.131	781.582
542.260	783.787
542.388	780.402
542.516	789.410
542.644	779.467
542.772	783.582
542.900	788.992
543.028	788.410
543.156	793.885
543.285	791.811
543.413	784.689
543.541	786.516
543.669	782.721
543.797	788.484
543.925	786.738
544.053	795.516
544.181	789.492
544.310	792.254
544.438	787.541
544.566	796.795
544.694	800.074
544.822	798.492
544.950	799.861
545.078	797.197
545.206	794.516
545.335	808.385
545.463	802.730
545.591	800.230
545.719	809.713
545.847	806.082
545.975	810.893
546.103	807.803
546.231	813.467
546.360	802.385
546.488	813.623
546.616	812.287
546.744	821.410
546.872	811.098
547.000	810.787
547.128	813.631
547.256	819.508
547.385	807.582
547.513	813.115
547.641	820.582
547.769	824.754
547.897	826.287
548.025	824.377
548.153	833.484
548.281	826.385
548.410	825.311
548.538	832.443
548.666	835.615
548.794	823.664
548.922	828.508
549.050	838.451
549.178	835.828
549.306	832.074
549.435	840.598
549.563	831.861
549.691	829.762
549.819	844.025
549.947	840.189
550.075	842.336
550.203	842.443
550.331	840.049
550.460	839.066
550.588	838.713
550.716	849.459
550.844	835.033
550.972	839.303
551.100	834.902
551.228	844.148
551.356	832.910
551.485	835.770
551.613	832.639
551.741	832.959
551.869	830.082
551.997	825.156
552.125	827.369
552.253	832.139
552.381	826.123
552.510	824.180
552.638	828.754
552.766	833.959
552.894	821.270
553.022	817.762
553.150	822.623
553.278	820.779
553.406	828.492
553.535	821.082
553.663	824.852
553.791	821.992
553.919	824.869
554.047	830.664
554.175	830.885
554.303	819.287
554.431	820.443
554.560	827.533
554.688	831.910
554.816	828.918
554.944	829.041
555.072	830.385
555.200	838.270
555.328	827.951
555.456	839.402
555.585	839.328
555.713	832.443
555.841	839.574
555.969	833.721
556.097	839.631
556.225	844.787
556.353	848.025
556.481	849.672
556.610	860.172
556.738	862.033
556.866	857.197
556.994	854.287
557.122	845.934
557.250	860.303
557.378	858.328
557.506	858.730
557.635	865.967
557.763	864.230
557.891	869.369
558.019	859.721
558.147	876.689
558.275	868.926
558.403	874.770
558.531	875.057
558.660	875.090
558.788	874.451
558.916	881.861
559.044	877.836
559.172	884.328
559.300	892.574
559.428	881.869
559.556	892.033
559.685	888.238
559.813	882.639
559.941	889.270
560.069	893.926
560.197	892.893
560.325	893.230
560.453	887.369
560.581	898.016
560.710	895.180
560.838	901.541
560.966	894.189
561.094	908.984
561.222	900.352
561.350	892.861
561.478	892.713
561.606	899.836
561.735	893.148
561.863	894.402
561.991	898.467
562.119	893.295
562.247	898.902
562.375	902.918
562.503	897.959
562.631	899.295
562.760	895.385
562.888	896.689
563.016	900.828
563.144	900.082
563.272	897.844
563.400	888.877
563.528	896.246
563.656	895.500
563.785	899.746
563.913	903.418
564.041	894.254
564.169	898.787
564.297	905.484
564.425	893.598
564.553	905.295
564.681	907.787
564.810	899.369
564.938	904.697
565.066	890.754
565.194	917.352
565.322	908.213
565.450	909.557
565.578	919.574
565.706	908.336
565.835	900.344
565.963	904.148
566.091	908.918
566.219	915.000
566.347	923.262
566.475	919.205
566.603	926.369
566.731	928.230
566.860	927.910
566.988	918.869
567.116	929.689
567.244	936.770
567.372	938.852
567.500	935.418
567.628	931.893
567.756	941.172
567.885	943.451
568.013	948.467
568.141	951.844
568.269	943.115
568.397	950.672
568.525	941.844
568.653	959.311
568.781	958.820
568.910	966.344
569.038	964.344
569.166	951.172
569.294	975.689
569.422	974.697
569.550	967.025
569.678	981.041
569.806	977.975
569.935	980.566
570.063	977.762
570.191	990.336
570.319	982.869
570.447	989.893
570.575	999.238
570.703	1003.525
570.831	1007.967
570.960	1004.918
571.088	996.566
571.216	1011.533
571.344	1002.836
571.472	1014.770
571.600	1015.385
571.728	1005.705
571.856	1008.508
571.985	1017.041
572.113	1018.156
572.241	1013.762
572.369	1029.943
572.497	1019.295
572.625	1034.139
572.753	1031.967
572.881	1034.443
573.010	1034.254
573.138	1044.910
573.266	1036.484
573.394	1041.123
573.522	1043.680
573.650	1046.270
573.778	1037.787
573.906	1037.762
574.035	1039.311
574.163	1055.590
574.291	1046.500
574.419	1047.730
574.547	1051.918
574.675	1048.721
574.803	1056.918
574.931	1054.566
575.060	1064.131
575.188	1051.262
575.316	1063.352
575.444	1059.066
575.572	1067.148
575.700	1053.000
575.828	1068.352
575.956	1063.902
576.085	1056.287
576.213	1074.648
576.341	1055.123
576.469	1061.664
576.597	1060.639
576.725	1061.057
576.853	1054.959
576.981	1071.180
577.110	1062.074
577.238	1067.598
577.366	1071.885
577.494	1065.443
577.622	1056.631
577.750	1070.492
577.878	1064.557
578.006	1070.943
578.135	1062.779
578.263	1061.311
578.391	1076.926
578.519	1070.189
578.647	1081.303
578.775	1063.402
578.903	1061.689
579.031	1080.943
579.160	1077.057
579.288	1062.959
579.416	1060.582
579.544	1069.443
579.672	1085.230
579.800	1080.607
579.928	1075.680
580.056	1066.713
580.185	1074.508
580.313	1085.975
580.441	1087.393
580.569	1067.516
580.697	1080.689
580.825	1079.025
580.953	1087.459
581.081	1082.648
581.210	1088.008
581.338	1094.738
581.466	1104.557
581.594	1111.631
581.722	1098.598
581.850	1097.770
581.978	1102.475
582.106	1102.279
582.235	1113.115
582.363	1099.270
582.491	1113.730
582.619	1103.836
582.747	1120.131
582.875	1123.467
583.003	1129.754
583.131	1124.008
583.260	1121.000
583.388	1136.779
583.516	1141.893
583.644	1147.352
583.772	1141.385
583.900	1156.426
584.028	1156.156
584.156	1151.844
584.285	1154.189
584.413	1161.861
584.541	1179.254
584.669	1161.590
584.797	1167.418
584.925	1174.475
585.053	1183.820
585.181	1183.852
585.310	1187.467
585.438	1194.246
585.566	1190.467
585.694	1206.484
585.822	1206.033
585.950	1200.025
586.078	1214.254
586.206	1214.943
586.335	1217.418
586.463	1216.172
586.591	1223.820
586.719	1221.090
586.847	1225.615
586.975	1238.492
587.103	1235.811
587.231	1224.959
587.360	1240.705
587.488	1243.320
587.616	1248.525
587.744	1248.934
587.872	1249.213
588.000	1255.082
588.128	1265.738
588.256	1264.467
588.385	1256.295
588.513	1258.770
588.641	1266.541
588.769	1272.410
588.897	1269.295
589.025	1260.246
589.153	1275.607
589.281	1259.533
589.410	1274.893
589.538	1279.139
589.666	1274.418
589.794	1278.689
589.922	1297.959
590.050	1289.689
590.178	1269.369
590.306	1281.648
590.435	1291.287
590.563	1280.943
590.691	1296.770
590.819	1280.689
590.947	1298.754
591.075	1283.918
591.203	1291.566
591.331	1312.189
591.460	1310.008
591.588	1289.377
591.716	1305.721
591.844	1308.689
591.972	1323.057
592.100	1307.295
592.228	1313.664
592.356	1314.197
592.485	1308.336
592.613	1318.844
592.741	1320.475
592.869	1322.738
592.997	1327.057
593.125	1330.967
593.253	1338.066
593.381	1325.352
593.510	1339.770
593.638	1336.090
593.766	1340.803
593.894	1347.844
594.022	1344.131
594.150	1343.492
594.278	1354.795
594.406	1349.910
594.535	1350.467
594.663	1352.844
594.791	1358.197
594.919	1356.385
595.047	1374.475
595.175	1372.877
595.303	1372.426
595.431	1373.910
595.560	1386.557
595.688	1387.861
595.816	1377.631
595.944	1391.221
596.072	1405.205
596.200	1398.590
596.328	1397.082
596.456	1398.623
596.585	1406.713
596.713	1422.418
596.841	1421.689
596.969	1414.033
597.097	1416.533
597.225	1427.893
597.353	1431.443
597.481	1432.352
597.610	1437.746
597.738	1433.721
597.866	1432.615
597.994	1442.533
598.122	1458.803
598.250	1455.221
598.378	1454.590
598.506	1469.402
598.635	1454.779
598.763	1473.713
598.891	1465.451
599.019	1478.434
599.147	1468.025
599.275	1473.803
599.403	1475.098
599.531	1484.303
599.660	1492.500
599.788	1499.607
599.916	1495.041
600.044	1494.631
600.172	1505.131
600.300	1507.295
600.428	1512.541
600.556	1515.951
600.685	1521.934
600.813	1524.262
600.941	1536.984
601.069	1536.320
601.197	1543.230
601.325	1546.893
601.453	1550.344
601.581	1561.352
601.710	1558.795
601.838	1561.336
601.966	1568.967
602.094	1571.787
602.222	1568.672
602.350	1563.238
602.478	1571.025
602.606	1598.393
602.735	1586.705
602.863	1600.770
602.991	1610.811
603.119	1604.123
603.247	1619.164
603.375	1624.270
603.503	1611.262
603.631	1622.951
603.760	1642.197
603.888	1628.623
604.016	1651.123
604.144	1640.049
604.272	1649.754
604.400	1656.123
604.528	1655.664
604.656	1670.574
604.785	1664.885
604.913	1673.402
605.041	1684.926
605.169	1694.664
605.297	1685.615
605.425	1688.820
605.553	1707.148
605.681	1694.951
605.810	1697.836
605.938	1708.344
606.066	1700.820
606.194	1720.221
606.322	1711.959
606.450	1728.713
606.578	1731.148
606.706	1744.098
606.835	1730.221
606.963	1742.598
607.091	1737.025
607.219	1740.836
607.347	1734.656
607.475	1758.967
607.603	1761.049
607.731	1759.008
607.860	1759.410
607.988	1760.852
608.116	1767.262
608.244	1756.180
608.372	1761.926
608.500	1782.623
608.628	1772.918
608.756	1773.451
608.885	1777.525
609.013	1780.066
609.141	1775.287
609.269	1787.672
609.397	1778.238
609.525	1783.795
609.653	1785.385
609.781	1776.434
609.910	1777.451
610.038	1781.623
610.166	1797.893
610.294	1788.934
610.422	1800.172
610.550	1791.328
610.678	1791.123
610.806	1801.049
610.935	1786.967
611.063	1795.262
611.191	1796.180
611.319	1802.123
611.447	1799.369
611.575	1800.246
611.703	1791.156
611.831	1797.066
611.960	1807.443
612.088	1809.500
612.216	1799.516
612.344	1821.238
612.472	1791.500
612.600	1809.844
612.728	1801.492
612.856	1819.795
612.985	1810.836
613.113	1803.369
613.241	1817.336
613.369	1818.828
613.497	1830.746
613.625	1823.295
613.753	1825.451
613.881	1805.098
614.010	1822.754
614.138	1824.680
614.266	1825.287
614.394	1820.795
614.522	1830.590
614.650	1848.295
614.778	1841.213
614.906	1858.754
615.035	1847.393
615.163	1844.230
615.291	1841.402
615.419	1855.074
615.547	1852.369
615.675	1859.189
615.803	1867.951
615.931	1878.131
616.060	1875.623
616.188	1882.115
616.316	1857.148
616.444	1868.566
616.572	1880.098
616.700	1879.639
616.828	1903.877
616.956	1896.984
617.085	1924.533
617.213	1907.844
617.341	1904.295
617.469	1901.811
617.597	1909.484
617.725	1922.525
617.853	1910.844
617.981	1923.115
618.110	1940.541
618.238	1935.230
618.366	1954.885
618.494	1952.967
618.622	1936.320
618.750	1943.803
618.878	1957.484
619.006	1962.484
619.135	1971.648
619.263	1975.934
619.391	1973.402
619.519	1968.033
619.647	2000.746
619.775	1984.549
619.903	2009.041
620.031	1998.164
620.160	2011.934
620.288	2003.525
620.416	2020.041
620.544	2026.451
620.672	2041.475
620.800	2031.033
620.928	2049.803
621.056	2045.246
621.185	2040.287
621.313	2044.352
621.441	2070.615
621.569	2076.926
621.697	2077.320
621.825	2094.172
621.953	2082.418
622.081	2110.869
622.210	2077.566
622.338	2115.361
622.466	2089.828
622.594	2116.434
622.722	2115.057
622.850	2117.041
622.978	2123.074
623.106	2129.598
623.235	2142.926
623.363	2140.107
623.491	2134.639
623.619	2127.049
623.747	2149.738
623.875	2152.615
624.003	2150.877
624.131	2148.721
624.260	2132.270
624.388	2160.377
624.516	2169.164
624.644	2152.582
624.772	2166.049
624.900	2175.566
625.028	2164.410
625.156	2188.689
625.285	2186.320
625.413	2186.705
625.541	2169.590
625.669	2182.180
625.797	2192.107
625.925	2198.107
626.053	2181.320
626.181	2195.607
626.310	2210.033
626.438	2198.262
626.566	2185.484
626.694	2190.320
626.822	2208.074
626.950	2211.361
627.078	2218.402
627.206	2194.254
627.335	2229.172
627.463	2215.213
627.591	2220.836
627.719	2214.664
627.847	2215.107
627.975	2230.615
628.103	2214.016
628.231	2218.336
628.360	2236.156
628.488	2215.533
628.616	2229.459
628.744	2211.123
628.872	2228.107
629.000	2222.385
629.128	2240.025
629.256	2241.672
629.385	2234.090
629.513	2213.730
629.641	2250.082
629.769	2228.607
629.897	2224.320
630.025	2234.254
630.153	2246.754
630.281	2234.549
630.410	2222.746
630.538	2249.631
630.666	2248.033
630.794	2242.738
630.922	2244.180
631.050	2225.967
631.178	2252.623
631.306	2241.795
631.435	2242.082
631.563	2251.377
631.691	2242.639
631.819	2264.213
631.947	2259.705
632.075	2239.975
632.203	2258.377
632.331	2251.164
632.460	2233.648
632.588	2258.893
632.716	2252.139
632.844	2260.721
632.972	2246.795
633.100	2255.320
633.228	2262.705
633.356	2250.172
633.485	2255.148
633.613	2262.730
633.741	2255.582
633.869	2248.656
633.997	2253.975
634.125	2265.828
634.253	2239.418
634.381	2251.762
634.510	2256.336
634.638	2246.000
634.766	2247.697
634.894	2243.049
635.022	2243.861
635.150	2237.057
635.278	2257.795
635.406	2235.844
635.535	2237.639
635.663	2253.492
635.791	2217.369
635.919	2251.746
636.047	2240.213
636.175	2231.557
636.303	2242.352
636.431	2238.975
636.560	2247.721
636.688	2243.279
636.816	2237.205
636.944	2226.623
637.072	2242.574
637.200	2230.000
637.328	2222.566
637.456	2242.672
637.585	2234.369
637.713	2252.754
637.841	2221.418
637.969	2224.328
638.097	2216.254
638.225	2241.213
638.353	2243.492
638.481	2237.738
638.610	2252.959
638.738	2245.975
638.866	2224.803
638.994	2239.910
639.122	2228.205
639.250	2234.443
639.378	2248.131
639.506	2233.467
639.635	2252.803
639.763	2222.230
639.891	2240.016
640.019	2244.164
640.147	2247.484
640.275	2239.098
640.403	2222.811
640.531	2247.762
640.660	2231.844
640.788	2265.369
640.916	2241.361
641.044	2254.713
641.172	2248.598
641.300	2258.590
641.428	2251.590
641.556	2259.311
641.685	2257.033
641.813	2249.123
641.941	2251.984
642.069	2259.172
642.197	2264.426
642.325	2259.648
642.453	2270.951
642.581	2281.656
642.710	2255.057
642.838	2267.295
642.966	2259.049
643.094	2273.451
643.222	2250.139
643.350	2258.869
643.478	2270.443
643.606	2283.426
643.735	2260.148
643.863	2259.156
643.991	2279.787
644.119	2261.090
644.247	2268.713
644.375	2277.008
644.503	2276.598
644.631	2285.213
644.760	2288.033
644.888	2268.828
645.016	2273.402
645.144	2296.369
645.272	2276.336
645.400	2290.803
645.528	2274.697
645.656	2269.385
645.785	2278.197
645.913	2298.713
646.041	2285.148
646.169	2271.746
646.297	2265.557
646.425	2287.648
646.553	2266.795
646.681	2258.615
646.810	2255.041
646.938	2271.221
647.066	2257.639
647.194	2270.705
647.322	2257.959
647.450	2249.320
647.578	2263.779
647.706	2243.959
647.835	2259.254
647.963	2259.680
648.091	2232.713
648.219	2246.885
648.347	2257.262
648.475	2236.328
648.603	2230.172
648.731	2236.541
648.860	2215.590
648.988	2227.320
649.116	2235.205
649.244	2211.180
649.372	2196.811
649.500	2204.828
649.628	2219.746
649.756	2199.279
649.885	2188.459
650.013	2175.230
650.141	2173.836
650.269	2162.811
650.397	2180.803
650.525	2158.492
650.653	2163.836
650.781	2162.803
650.910	2158.287
651.038	2132.713
651.166	2147.402
651.294	2153.016
651.422	2121.295
651.550	2118.197
651.678	2114.197
651.806	2101.648
651.935	2125.344
652.063	2087.123
652.191	2079.525
652.319	2087.008
652.447	2071.279
652.575	2086.467
652.703	2060.000
652.831	2066.443
652.960	2057.918
653.088	2046.893
653.216	2044.590
653.344	2045.139
653.472	2037.746
653.600	2037.779
653.728	2025.795
653.856	2026.689
653.985	2038.066
654.113	2016.008
654.241	2020.443
654.369	2014.238
654.497	2017.475
654.625	1998.664
654.753	2007.984
654.881	1991.738
655.010	2012.393
655.138	1983.631
655.266	1986.697
655.394	1968.238
655.522	1980.861
655.650	1956.664
655.778	1981.008
655.906	1973.344
656.035	1958.410
656.163	1961.090
656.291	1960.057
656.419	1946.082
656.547	1951.311
656.675	1914.262
656.803	1929.893
656.931	1928.459
657.060	1921.508
657.188	1918.451
657.316	1926.287
657.444	1925.705
657.572	1926.697
657.700	1897.689
657.828	1905.582
657.956	1919.697
658.085	1935.566
658.213	1899.082
658.341	1899.697
658.469	1903.861
658.597	1907.475
658.725	1908.131
658.853	1893.254
658.981	1890.664
659.110	1898.484
659.238	1892.074
659.366	1882.574
659.494	1872.746
659.622	1877.205
659.750	1893.156
659.878	1872.631
660.006	1880.492
660.135	1863.861
660.263	1868.828
660.391	1843.254
660.519	1862.049
660.647	1846.049
660.775	1846.598
660.903	1839.328
661.031	1834.844
661.160	1827.631
661.288	1823.926
661.416	1832.049
661.544	1825.492
661.672	1829.016
661.800	1822.926
661.928	1823.566
662.056	1816.533
662.185	1806.877
662.313	1798.844
662.441	1805.795
662.569	1812.385
662.697	1794.656
662.825	1795.385
662.953	1788.877
663.081	1780.090
663.210	1796.221
663.338	1791.541
663.466	1777.508
663.594	1757.500
663.722	1757.205
663.850	1748.893
663.978	1736.951
664.106	1754.779
664.235	1768.746
664.363	1766.033
664.491	1740.164
664.619	1747.180
664.747	1749.016
664.875	1729.484
665.003	1722.951
665.131	1729.877
665.260	1717.902
665.388	1706.484
665.516	1711.795
665.644	1705.557
665.772	1707.508
665.900	1706.115
666.028	1705.328
666.156	1697.270
666.285	1696.484
666.413	1697.852
666.541	1694.574
666.669	1679.967
666.797	1682.107
666.925	1671.180
667.053	1684.148
667.181	1657.213
667.310	1652.393
667.438	1651.115
667.566	1659.385
667.694	1650.459
667.822	1647.238
667.950	1643.516
668.078	1636.828
668.206	1637.934
668.335	1634.713
668.463	1631.484
668.591	1610.852
668.719	1619.951
668.847	1617.639
668.975	1603.090
669.103	1608.410
669.231	1611.385
669.360	1610.590
669.488	1607.197
669.616	1598.164
669.744	1589.295
669.872	1584.475
670.000	1605.164
670.128	1570.303
670.256	1572.197
670.385	1565.205
670.513	1579.484
670.641	1558.295
670.769	1562.566
670.897	1555.352
671.025	1547.582
671.153	1556.541
671.281	1561.959
671.410	1545.623
671.538	1536.820
671.666	1525.721
671.794	1538.377
671.922	1533.082
672.050	1524.033
672.178	1525.328
672.306	1514.180
672.435	1509.230
672.563	1510.697
672.691	1504.770
672.819	1515.426
672.947	1496.557
673.075	1471.762
673.203	1483.689
673.331	1478.352
673.460	1468.262
673.588	1459.926
673.716	1472.672
673.844	1462.205
673.972	1458.852
674.100	1456.631
674.228	1454.648
674.356	1443.156
674.485	1438.574
674.613	1432.369
674.741	1424.205
674.869	1432.492
674.997	1421.631
675.125	1425.049
675.253	1403.721
675.381	1409.238
675.510	1397.951
675.638	1380.951
675.766	1396.238
675.894	1387.213
676.022	1389.713
676.150	1376.615
676.278	1380.861
676.406	1364.230
676.535	1355.574
676.663	1363.008
676.791	1343.648
676.919	1347.303
677.047	1343.369
677.175	1327.516
677.303	1333.852
677.431	1320.418
677.560	1322.041
677.688	1320.975
677.816	1303.410
677.944	1312.721
678.072	1303.025
678.200	1300.828
678.328	1286.754
678.456	1286.074
678.585	1279.590
678.713	1283.246
678.841	1261.557
678.969	1265.164
679.097	1268.615
679.225	1266.451
679.353	1259.770
679.481	1246.525
679.610	1252.197
679.738	1244.344
679.866	1244.107
679.994	1231.770
680.122	1231.016
680.250	1221.287
680.378	1222.082
680.506	1214.664
680.635	1201.418
680.763	1199.344
680.891	1199.041
681.019	1203.230
681.147	1197.574
681.275	1177.607
681.403	1173.869
681.531	1182.590
681.660	1181.500
681.788	1165.172
681.916	1160.713
682.044	1177.180
682.172	1154.172
682.300	1152.869
682.428	1153.590
682.556	1156.434
682.685	1139.107
682.813	1139.598
682.941	1141.844
683.069	1126.590
683.197	1132.811
683.325	1105.148
683.453	1120.246
683.581	1105.279
683.710	1104.484
683.838	1118.582
683.966	1100.820
684.094	1101.697
684.222	1109.566
684.350	1079.082
684.478	1098.730
684.606	1094.590
684.735	1090.492
684.863	1087.238
684.991	1077.525
685.119	1066.115
685.247	1067.639
685.375	1052.967
685.503	1068.770
685.631	1067.107
685.760	1056.779
685.888	1054.639
686.016	1051.574
686.144	1047.500
686.272	1038.172
686.400	1048.582
686.528	1036.475
686.656	1037.844
686.785	1014.705
686.913	1036.533
687.041	1019.213
687.169	1026.852
687.297	1014.615
687.425	1017.525
687.553	1012.418
687.681	1014.836
687.810	1007.656
687.938	1000.943
688.066	1005.959
688.194	1007.336
688.322	999.738
688.450	992.680
688.578	994.230
688.706	999.721
688.835	984.533
688.963	990.779
689.091	992.746
689.219	970.066
689.347	970.426
689.475	972.189
689.603	965.025
689.731	974.213
689.860	958.557
689.988	972.607
690.116	957.607
690.244	962.975
690.372	957.541
690.500	955.680
690.628	939.221
690.756	944.262
690.885	950.385
691.013	939.041
691.141	939.287
691.269	946.615
691.397	939.639
691.525	938.713
691.653	935.008
691.781	932.533
691.910	920.590
692.038	915.139
692.166	916.926
692.294	917.049
692.422	909.754
692.550	907.344
692.678	911.779
692.806	899.090
692.935	892.910
693.063	890.680
693.191	896.795
693.319	885.967
693.447	887.861
693.575	881.738
693.703	879.943
693.831	878.033
693.960	872.631
694.088	874.541
694.216	875.885
694.344	861.008
694.472	864.467
694.600	858.762
694.728	849.451
694.856	845.205
694.985	852.574
695.113	842.328
695.241	848.270
695.369	841.500
695.497	832.000
695.625	841.213
695.753	838.008
695.881	824.713
696.010	827.770
696.138	825.926
696.266	822.033
696.394	817.434
696.522	812.066
696.650	805.336
696.778	809.377
696.906	798.705
697.035	793.131
697.163	790.820
697.291	792.516
697.419	789.590
697.547	783.910
697.675	786.008
697.803	769.221
697.931	776.107
698.060	770.803
698.188	766.861
698.316	770.967
698.444	768.754
698.572	750.959
698.700	761.459
698.828	743.041
698.956	744.566
699.085	746.270
699.213	733.385
699.341	733.418
699.469	735.811
699.597	736.664
699.725	734.951
699.853	721.934
699.981	724.426
700.110	717.246
700.238	718.672
700.366	712.869
700.494	705.369
700.622	715.508
700.750	700.443
700.878	707.115
701.006	690.992
701.135	696.033
701.263	694.180
701.391	689.959
701.519	693.230
701.647	686.443
701.775	677.262
701.903	684.254
702.031	675.311
702.160	674.131
702.288	673.754
702.416	673.131
702.544	666.098
702.672	662.213
702.800	667.295
702.928	663.328
703.056	657.615
703.185	652.467
703.313	653.934
703.441	644.525
703.569	651.115
703.697	653.820
703.825	644.254
703.953	642.541
704.081	639.574
704.210	635.197
704.338	636.656
704.466	628.230
704.594	632.803
704.722	626.213
704.850	618.410
704.978	625.549
705.106	617.697
705.235	609.393
705.363	613.877
705.491	616.238
705.619	610.697
705.747	614.516
705.875	610.680
706.003	604.148
706.131	602.762
706.260	600.205
706.388	594.016
706.516	597.246
706.644	590.516
706.772	588.590
706.900	581.566
707.028	582.730
707.156	574.992
707.285	581.754
707.413	575.959
707.541	570.098
707.669	566.738
707.797	571.738
707.925	568.369
708.053	566.713
708.181	561.664
708.310	561.451
708.438	556.893
708.566	558.525
708.694	555.623
708.822	556.131
708.950	554.902
709.078	541.951
709.206	546.910
709.335	545.189
709.463	539.828
709.591	537.885
709.719	533.762
709.847	530.107
709.975	533.664
710.103	529.385
710.231	523.492
710.360	523.361
710.488	514.639
710.616	518.033
710.744	518.279
710.872	518.279
711.000	511.852
711.128	504.705
711.256	505.893
711.385	507.975
711.513	505.779
711.641	503.566
711.769	500.246
711.897	498.934
712.025	494.287
712.153	490.164
712.281	493.139
712.410	489.975
712.538	491.910
712.666	483.574
712.794	484.779
712.922	490.057
713.050	478.139
713.178	479.189
713.306	475.344
713.435	472.959
713.563	471.738
713.691	478.049
713.819	467.016
713.947	464.926
714.075	463.844
714.203	466.467
714.331	458.713
714.460	459.254
714.588	457.639
714.716	454.369
714.844	447.869
714.972	447.344
715.100	451.000
715.228	451.172
715.356	450.033
715.485	446.139
715.613	444.934
715.741	441.721
715.869	439.213
715.997	439.992
716.125	433.066
716.253	436.484
716.381	434.500
716.510	431.475
716.638	436.098
716.766	425.975
716.894	427.361
717.022	425.615
717.150	417.754
717.278	425.705
717.406	421.992
717.535	421.025
717.663	421.287
717.791	420.844
717.919	413.992
718.047	412.344
718.175	414.402
718.303	414.639
718.431	406.730
718.560	408.090
718.688	404.492
718.816	403.098
718.944	402.549
719.072	405.811
719.200	400.443
719.328	401.574
719.456	399.303
719.585	404.008
719.713	395.877
719.841	397.910
719.969	385.074
720.097	387.877
720.225	388.721
720.353	388.500
720.481	388.410
720.610	383.262
720.738	382.730
720.866	381.762
720.994	383.811
721.122	381.139
721.250	377.910
721.378	377.861
721.506	380.320
721.635	373.598
721.763	369.566
721.891	373.016
722.019	366.656
722.147	368.139
722.275	372.328
722.403	366.566
722.531	363.959
722.660	363.959
722.788	361.713
722.916	360.000
723.044	360.041
723.172	356.918
723.300	362.123
723.428	355.984
723.556	353.615
723.685	356.475
723.813	355.844
723.941	354.107
724.069	351.393
724.197	350.082
724.325	346.959
724.453	341.262
724.581	342.287
724.710	344.057
724.838	342.639
724.966	339.705
725.094	340.352
725.222	334.959
725.350	335.713
725.478	337.631
725.606	336.098
725.735	331.828
725.863	329.975
725.991	327.098
726.119	329.361
726.247	326.910
726.375	326.164
726.503	321.279
726.631	323.443
726.760	323.164
726.888	324.533
727.016	320.705
727.144	320.852
727.272	314.566
727.400	311.287
727.528	311.656
727.656	314.057
727.785	310.459
727.913	307.967
728.041	304.107
728.169	312.787
728.297	308.172
728.425	308.984
728.553	305.123
728.681	302.082
728.810	300.336
728.938	299.295
729.066	298.525
729.194	300.590
729.322	295.033
729.450	292.975
729.578	293.402
729.706	291.484
729.835	293.836
729.963	293.156
730.091	288.754
730.219	289.197
730.347	286.139
730.475	286.451
730.603	284.828
730.731	284.508
730.860	281.139
730.988	281.672
731.116	278.713
731.244	280.041
731.372	277.959
731.500	279.377
731.628	278.525
731.756	276.418
731.885	274.500
732.013	274.828
732.141	270.361
732.269	272.639
732.397	272.664
732.525	274.205
732.653	269.623
732.781	269.615
732.910	269.254
733.038	270.508
733.166	263.189
733.294	265.877
733.422	265.967
733.550	268.385
733.678	264.721
733.806	268.205
733.935	261.148
734.063	261.328
734.191	253.828
734.319	256.385
734.447	259.795
734.575	259.164
734.703	256.238
734.831	254.033
734.960	252.287
735.088	254.033
735.216	257.754
735.344	254.689
735.472	252.820
735.600	252.779
735.728	253.393
735.856	252.680
735.985	249.057
736.113	249.533
736.241	246.902
736.369	250.689
736.497	245.525
736.625	247.713
736.753	243.713
736.881	246.533
737.010	243.475
737.138	243.762
737.266	242.943
737.394	241.984
737.522	245.287
737.650	239.803
737.778	243.533
737.906	238.590
738.035	236.090
738.163	238.762
738.291	237.057
738.419	231.975
738.547	234.352
738.675	235.525
738.803	231.680
738.931	232.508
739.060	233.352
739.188	233.107
739.316	229.926
739.444	234.492
739.572	227.131
739.700	228.803
739.828	228.836
739.956	229.033
740.085	228.984
740.213	225.861
740.341	225.205
740.469	223.549
740.597	222.738
740.725	226.615
740.853	223.410
740.981	224.295
741.110	222.221
741.238	222.443
741.366	220.467
741.494	222.426
741.622	219.279
741.750	218.639
741.878	219.107
742.006	219.803
742.135	216.279
742.263	221.533
742.391	212.803
742.519	217.180
742.647	215.861
742.775	214.861
742.903	217.623
743.031	213.803
743.160	210.984
743.288	211.959
743.416	208.328
743.544	209.180
743.672	209.861
743.800	210.852
743.928	209.205
744.056	208.320
744.185	213.221
744.313	206.467
744.441	206.508
744.569	205.180
744.697	206.615
744.825	207.377
744.953	202.598
745.081	205.090
745.210	203.680
745.338	203.033
745.466	202.844
745.594	202.582
745.722	202.746
745.850	200.820
745.978	200.197
746.106	202.303
746.235	197.639
746.363	200.451
746.491	200.082
746.619	198.910
746.747	196.951
746.875	194.082
747.003	197.459
747.131	197.311
747.260	195.623
747.388	193.451
747.516	199.746
747.644	194.180
747.772	193.762
747.900	193.402
748.028	191.000
748.156	192.344
748.285	190.574
748.413	191.492
748.541	191.262
748.669	189.754
748.797	190.074
748.925	188.320
749.053	188.066
749.181	185.254
749.310	188.107
749.438	189.164
749.566	187.270
749.694	186.754
749.822	185.762
749.950	187.107
750.078	183.680
750.206	183.680
750.335	185.951
750.463	183.639
750.591	184.377
750.719	184.369
750.847	180.541
750.975	179.115
751.103	180.967
751.231	182.230
751.360	179.393
751.488	181.238
751.616	180.221
751.744	177.516
751.872	175.402
752.000	178.082
752.128	176.770
752.256	179.295
752.385	176.664
752.513	178.820
752.641	171.148
752.769	175.049
752.897	175.746
753.025	169.361
753.153	173.049
753.281	175.402
753.410	173.205
753.538	173.418
753.666	171.230
753.794	172.098
753.922	171.598
754.050	172.615
754.178	169.066
754.306	171.369
754.435	170.000
754.563	171.820
754.691	169.557
754.819	166.984
754.947	170.484
755.075	168.189
755.203	169.066
755.331	167.754
755.460	165.451
755.588	166.893
755.716	164.631
755.844	164.320
755.972	167.344
756.100	166.574
756.228	164.984
756.356	165.107
756.485	164.967
756.613	165.770
756.741	165.689
756.869	161.221
756.997	165.713
757.125	163.828
757.253	164.615
757.381	161.549
757.510	163.098
757.638	165.139
757.766	163.385
757.894	162.762
758.022	160.197
758.150	161.164
758.278	158.418
758.406	159.820
758.535	160.672
758.663	161.746
758.791	159.590
758.919	161.320
759.047	156.533
759.175	158.746
759.303	158.238
759.431	154.811
759.560	155.590
759.688	158.852
759.816	159.295
759.944	156.066
760.072	156.090
760.200	153.500
760.328	156.418
760.456	155.566
760.585	154.377
760.713	155.180
760.841	153.320
760.969	154.311
761.097	152.393
761.225	154.803
761.353	154.369
761.481	151.861
761.610	152.230
761.738	152.533
761.866	152.902
761.994	152.811
762.122	151.484
762.250	149.074
762.378	150.557
762.506	150.484
762.635	151.098
762.763	150.402
762.891	151.516
763.019	149.148
763.147	148.934
763.275	149.123
763.403	149.902
763.531	148.689
763.660	147.484
763.788	149.426
763.916	148.090
764.044	146.615
764.172	148.549
764.300	146.828
764.428	147.402
764.556	146.705
764.685	146.180
764.813	145.557
764.941	144.484
765.069	146.951
765.197	144.934
765.325	145.598
765.453	144.090
765.581	146.139
765.710	145.598
765.838	142.828
765.966	145.820
766.094	143.508
766.222	142.967
766.350	142.770
766.478	142.492
766.606	140.885
766.735	142.418
766.863	140.566
766.991	141.770
767.119	143.664
767.247	141.213
767.375	141.836
767.503	141.025
767.631	141.197
767.760	139.484
767.888	138.279
768.016	140.836
768.144	140.008
768.272	139.615
768.400	141.025
768.528	139.918
768.656	140.705
768.785	137.861
768.913	138.451
769.041	137.213
769.169	136.369
769.297	136.836
769.425	134.934
769.553	136.484
769.681	137.705
769.810	139.557
769.938	136.672
770.066	134.984
770.194	135.533
770.322	135.443
770.450	136.287
770.578	135.057
770.706	136.574
770.835	134.730
770.963	134.221
771.091	133.869
771.219	135.779
771.347	136.270
771.475	134.877
771.603	132.057
771.731	135.639
771.860	133.902
771.988	132.287
772.116	134.123
772.244	132.615
772.372	133.893
772.500	134.484
772.628	132.295
772.756	133.230
772.885	133.943
773.013	133.508
773.141	132.189
773.269	130.402
773.397	130.918
773.525	132.336
773.653	132.066
773.781	130.066
773.910	130.434
774.038	130.820
774.166	131.803
774.294	131.967
774.422	129.746
774.550	131.287
774.678	130.852
774.806	129.230
774.935	132.467
775.063	129.361
775.191	130.549
775.319	129.172
775.447	131.238
775.575	128.123
775.703	129.811
775.831	129.541
775.960	128.705
776.088	129.590
776.216	128.344
776.344	129.082
776.472	128.852
776.600	129.230
776.728	127.893
776.856	128.205
776.985	127.369
777.113	127.295
777.241	128.779
777.369	128.107
777.497	125.361
777.625	128.508
777.753	125.254
777.881	128.566
778.010	126.090
778.138	126.320
778.266	125.721
778.394	125.074
778.522	125.885
778.650	125.607
778.778	124.205
778.906	125.910
779.035	124.902
779.163	124.139
779.291	126.377
779.419	124.992
779.547	125.615
779.675	125.664
779.803	124.582
779.931	123.320
780.060	125.311
780.188	124.213
780.316	124.811
780.444	125.221
780.572	122.615
780.700	124.672
780.828	123.451
780.956	124.697
781.085	123.705
781.213	122.820
781.341	124.311
781.469	122.508
781.597	123.902
781.725	123.467
781.853	123.180
781.981	121.582
782.110	123.434
782.238	124.582
782.366	121.992
782.494	121.074
782.622	123.689
782.750	124.820
782.878	121.828
783.006	121.656
783.135	121.500
783.263	121.131
783.391	122.697
783.519	122.377
783.647	122.648
783.775	121.820
783.903	121.475
784.031	120.877
784.160	120.098
784.288	122.049
784.416	119.951
784.544	120.500
784.672	120.426
784.800	120.770
784.928	119.320
785.056	118.631
785.185	120.967
785.313	118.967
785.441	119.164
785.569	120.705
785.697	119.787
785.825	117.656
785.953	118.648
786.081	119.926
786.210	118.549
786.338	119.664
786.466	118.787
786.594	117.672
786.722	119.180
786.850	118.615
786.978	118.885
787.106	118.426
787.235	118.320
787.363	119.311
787.491	118.910
787.619	117.828
787.747	119.197
787.875	118.197
788.003	116.402
788.131	117.557
788.260	119.016
788.388	119.500
788.516	116.615
788.644	117.984
788.772	117.721
788.900	118.598
789.028	117.262
789.156	118.164
789.285	116.787
789.413	116.443
789.541	117.672
789.669	115.836
789.797	116.631
789.925	116.697
790.053	117.623
790.181	117.057
790.310	115.525
790.438	114.992
790.566	117.107
790.694	116.197
790.822	116.959
790.950	116.484
791.078	117.213
791.206	114.754
791.335	114.189
791.463	115.148
791.591	115.238
791.719	114.762
791.847	114.082
791.975	114.762
792.103	114.787
792.231	115.328
792.360	113.631
792.488	115.033
792.616	115.336
792.744	114.057
792.872	114.156
793.000	114.738
793.128	113.639
793.256	114.566
793.385	113.107
793.513	115.533
793.641	115.426
793.769	114.721
793.897	114.803
794.025	114.713
794.153	114.139
794.281	114.238
794.410	113.254
794.538	112.975
794.666	114.566
794.794	112.344
794.922	113.508
795.050	113.082
795.178	113.951
795.306	111.189
795.435	112.787
795.563	112.590
795.691	111.902
795.819	112.680
795.947	112.607
796.075	114.598
796.203	114.377
796.331	110.811
796.460	112.262
796.588	112.533
796.716	112.959
796.844	113.598
796.972	111.984
797.100	110.861
797.228	112.623
797.356	112.975
797.485	111.934
797.613	111.869
797.741	112.738
797.869	112.279
797.997	112.361
798.125	112.074
798.253	112.754
798.381	111.926
798.510	112.033
798.638	111.336
798.766	110.902
798.894	110.246
799.022	111.295
799.150	110.918
799.278	110.500
799.406	112.139
799.535	111.779
799.663	112.115
799.791	109.910
799.919	110.574
800.047	111.320
800.175	111.270
800.303	110.443
800.431	110.369
800.560	110.238
800.688	111.361
800.816	110.230
800.944	110.746
801.072	112.803
801.200	112.164
801.328	111.221
801.456	110.475
801.585	112.189
801.713	110.672
801.841	112.385
801.969	111.320
802.097	111.123
802.225	111.057
802.353	111.623
802.481	110.680
802.610	110.566
802.738	110.656
802.866	111.156
802.994	110.443
803.122	110.213
803.250	110.320
803.378	110.197
803.506	111.057
803.635	111.525
803.763	109.574
803.891	110.516
804.019	109.951
804.147	109.705
804.275	109.516
804.403	108.967
804.531	109.361
804.660	108.992
804.788	110.254
804.916	108.926
805.044	110.377
805.172	110.295
805.300	108.902
805.428	109.254
805.556	108.615
805.685	109.230
805.813	110.213
805.941	109.828
806.069	110.664
806.197	109.730
806.325	109.262
806.453	109.943
806.581	109.869
806.710	108.221
806.838	108.385
806.966	109.861
807.094	108.393
807.222	109.262
807.350	109.098
807.478	108.918
807.606	108.221
807.735	109.516
807.863	109.484
807.991	108.615
808.119	108.557
808.247	108.361
808.375	109.664
808.503	108.689
808.631	109.434
808.760	108.590
808.888	108.434
809.016	109.180
809.144	108.648
809.272	109.869
809.400	109.861
809.528	108.803
809.656	107.533
809.785	108.631
809.913	108.025
810.041	108.680
810.169	108.238
810.297	108.836
810.425	109.254
810.553	107.779
810.681	109.287
810.810	109.090
810.938	109.148
811.066	106.893
811.194	107.730
811.322	107.861
811.450	107.926
811.578	109.098
811.706	109.402
811.835	108.549
811.963	108.426
812.091	108.984
812.219	108.221
812.347	107.803
812.475	107.598
812.603	108.500
812.731	107.139
812.860	108.262
812.988	109.000
813.116	107.221
813.244	109.098
813.372	109.344
813.500	109.189
813.628	108.549
813.756	106.066
813.885	108.098
814.013	106.484
814.141	108.639
814.269	107.451
814.397	108.418
814.525	107.754
814.653	108.230
814.781	107.230
814.910	106.352
815.038	107.721
815.166	107.984
815.294	107.361
815.422	108.336
815.550	107.508
815.678	106.770
815.806	106.852
815.935	106.680
816.063	106.779
816.191	106.361
816.319	106.967
816.447	107.500
816.575	107.484
816.703	107.738
816.831	107.697
816.960	108.180
817.088	107.107
817.216	107.557
817.344	106.910
817.472	107.279
817.600	106.525
817.728	106.820
817.856	106.885
817.985	106.459
818.113	107.828
818.241	107.164
818.369	106.467
818.497	107.303
818.625	107.443
818.753	107.500
818.881	106.795
819.010	107.303
819.138	107.557
819.266	106.934
819.394	106.459
819.522	106.525
819.650	107.869
819.778	107.254
819.906	106.943
820.035	106.508
820.163	106.672
820.291	105.475
820.419	105.648
820.547	106.975
820.675	104.902
820.803	107.615
820.931	106.623
821.060	105.680
821.188	107.123
821.316	105.730
821.444	106.697
821.572	106.820
821.700	105.623
821.828	106.885
821.956	106.877
822.085	106.508
822.213	106.730
822.341	106.787
822.469	105.434
822.597	106.131
822.725	105.328
822.853	106.508
822.981	105.648
823.110	107.082
823.238	104.713
823.366	107.303
823.494	105.836
823.622	106.049
823.750	106.057
823.878	104.484
824.006	106.648
824.135	106.656
824.263	107.016
824.391	105.221
824.519	106.852
824.647	106.467
824.775	106.434
824.903	107.246
825.031	107.434
825.160	107.090
825.288	105.959
825.416	106.656
825.544	106.344
825.672	106.516
825.800	106.025
825.928	106.754
826.056	106.811
826.185	105.984
826.313	106.098
826.441	105.516
826.569	104.811
826.697	106.344
826.825	105.164
826.953	106.787
827.081	105.443
827.210	105.385
827.338	105.066
827.466	105.230
827.594	105.770
827.722	106.549
827.850	106.197
827.978	104.967
828.106	104.926
828.235	106.836
828.363	106.205
828.491	105.918
828.619	105.762
828.747	106.279
828.875	105.639
829.003	105.533
829.131	106.033
829.260	107.246
829.388	105.008
829.516	106.139
829.644	106.311
829.772	106.418
829.900	105.877
830.028	105.639
830.156	105.541
830.285	105.664
830.413	105.025
830.541	105.828
830.669	105.574
830.797	105.582
830.925	105.172
831.053	105.098
831.181	105.107
831.310	106.197
831.438	106.172
831.566	105.967
831.694	105.393
831.822	104.730
831.950	104.943
832.078	105.426
832.206	104.975
832.335	104.107
832.463	106.164
832.591	105.877
832.719	104.713
832.847	105.320
832.975	104.861
833.103	106.197
833.231	106.131
833.360	106.262
833.488	105.328
833.616	104.615
833.744	104.230
833.872	105.574
834.000	106.230
834.128	105.836
834.256	105.148
834.385	104.877
834.513	106.189
834.641	103.500
834.769	104.852
834.897	105.885
835.025	104.180
835.153	103.148
835.281	104.648
835.410	105.074
835.538	105.148
835.666	105.213
835.794	105.049
835.922	106.033
836.050	105.770
836.178	105.213
836.306	105.213
836.435	105.402
836.563	104.943
836.691	105.508
836.819	106.336
836.947	104.066
837.075	104.811
837.203	104.713
837.331	105.230
837.460	105.410
837.588	104.607
837.716	105.418
837.844	104.615
837.972	104.484
838.100	105.041
838.228	104.049
838.356	104.107
838.485	102.762
838.613	103.943
838.741	105.525
838.869	104.820
838.997	105.230
839.125	103.254
839.253	103.598
839.381	105.352
839.510	104.967
839.638	104.303
839.766	103.820
839.894	104.197
840.022	105.303
840.150	105.385
840.278	104.730
840.406	104.820
840.535	105.098
840.663	103.721
840.791	103.861
840.919	104.230
841.047	104.057
841.175	105.016
841.303	103.836
841.431	105.500
841.560	105.533
841.688	104.328
841.816	104.287
841.944	104.361
842.072	104.451
842.200	104.557
842.328	104.984
842.456	104.426
842.585	104.967
842.713	105.148
842.841	104.131
842.969	104.746
843.097	104.566
843.225	104.443
843.353	104.746
843.481	104.459
843.610	104.279
843.738	103.336
843.866	104.467
