70-120-0_at_679.99nm_cut_at_1283.50Y_01.dat
24.01.2024
11:33:48
cut middle at Y: 1283.50
top cursor: 1343 down cursor: 1224 mean of: 119 lines , 2560 datapoints
wavelength(nm)	intensity[arb. units]
515.994	373.664
516.122	355.227
516.250	354.840
516.378	352.613
516.506	355.899
516.635	350.092
516.763	354.042
516.891	360.168
517.019	358.185
517.147	358.496
517.275	361.244
517.403	357.185
517.531	358.782
517.660	355.933
517.788	361.798
517.916	360.479
518.044	359.773
518.172	361.521
518.300	366.756
518.428	358.050
518.556	364.387
518.685	362.244
518.813	365.588
518.941	366.387
519.069	363.210
519.197	366.471
519.325	366.462
519.453	366.235
519.581	375.605
519.710	366.210
519.838	372.857
519.966	370.303
520.094	373.857
520.222	369.807
520.350	373.076
520.478	376.185
520.606	378.294
520.735	372.000
520.863	379.924
520.991	380.983
521.119	373.613
521.247	383.756
521.375	380.000
521.503	384.328
521.631	384.807
521.760	388.000
521.888	390.840
522.016	387.697
522.144	383.294
522.272	384.328
522.400	388.429
522.528	387.731
522.656	387.672
522.785	395.462
522.913	394.445
523.041	389.773
523.169	390.042
523.297	391.958
523.425	395.782
523.553	399.689
523.681	396.563
523.810	396.504
523.938	402.840
524.066	396.445
524.194	399.303
524.322	397.387
524.450	398.050
524.578	395.034
524.706	402.815
524.835	400.286
524.963	402.706
525.091	396.361
525.219	397.672
525.347	401.580
525.475	402.294
525.603	402.420
525.731	401.748
525.860	398.639
525.988	401.748
526.116	396.378
526.244	405.714
526.372	400.714
526.500	403.538
526.628	403.521
526.756	398.521
526.885	403.983
527.013	402.697
527.141	403.647
527.269	400.689
527.397	401.832
527.525	404.126
527.653	403.790
527.781	399.538
527.910	404.950
528.038	411.504
528.166	410.689
528.294	410.328
528.422	407.353
528.550	408.874
528.678	406.429
528.806	410.429
528.935	412.916
529.063	412.504
529.191	413.857
529.319	415.563
529.447	414.496
529.575	415.244
529.703	412.916
529.831	415.571
529.960	417.950
530.088	414.924
530.216	417.050
530.344	408.714
530.472	414.723
530.600	417.210
530.728	417.773
530.856	419.059
530.985	419.227
531.113	412.874
531.241	419.857
531.369	421.378
531.497	421.218
531.625	419.126
531.753	421.235
531.881	422.050
532.010	421.496
532.138	420.134
532.266	418.555
532.394	413.370
532.522	419.160
532.650	419.218
532.778	421.983
532.906	416.193
533.035	422.244
533.163	420.672
533.291	416.983
533.419	416.681
533.547	414.832
533.675	418.630
533.803	415.420
533.931	415.916
534.060	417.336
534.188	417.403
534.316	418.134
534.444	422.622
534.572	417.429
534.700	419.378
534.828	423.714
534.956	419.546
535.085	425.521
535.213	423.109
535.341	425.067
535.469	423.008
535.597	428.395
535.725	428.521
535.853	427.538
535.981	429.101
536.110	432.303
536.238	434.412
536.366	437.067
536.494	430.445
536.622	436.387
536.750	434.966
536.878	435.378
537.006	437.454
537.135	440.571
537.263	442.378
537.391	440.109
537.519	442.941
537.647	439.479
537.775	438.798
537.903	441.193
538.031	444.168
538.160	444.597
538.288	447.622
538.416	444.571
538.544	445.067
538.672	442.739
538.800	448.664
538.928	446.975
539.056	453.244
539.185	449.445
539.313	446.639
539.441	452.513
539.569	452.412
539.697	455.160
539.825	456.479
539.953	446.824
540.081	444.311
540.210	450.118
540.338	454.151
540.466	454.672
540.594	454.378
540.722	453.815
540.850	452.294
540.978	451.866
541.106	455.756
541.235	458.000
541.363	452.538
541.491	455.345
541.619	452.395
541.747	454.807
541.875	457.269
542.003	453.697
542.131	453.588
542.260	457.798
542.388	458.437
542.516	453.992
542.644	459.529
542.772	460.160
542.900	461.597
543.028	460.311
543.156	461.689
543.285	455.092
543.413	455.378
543.541	462.185
543.669	461.765
543.797	463.655
543.925	457.445
544.053	465.202
544.181	467.370
544.310	459.681
544.438	457.412
544.566	464.000
544.694	462.462
544.822	458.857
544.950	463.202
545.078	459.765
545.206	459.613
545.335	463.529
545.463	458.134
545.591	456.723
545.719	458.613
545.847	459.008
545.975	461.218
546.103	458.176
546.231	466.126
546.360	465.353
546.488	458.538
546.616	467.975
546.744	461.294
546.872	457.958
547.000	463.874
547.128	465.336
547.256	460.176
547.385	459.731
547.513	459.252
547.641	463.966
547.769	465.555
547.897	459.571
548.025	463.824
548.153	461.748
548.281	460.563
548.410	462.891
548.538	456.025
548.666	462.168
548.794	457.807
548.922	463.639
549.050	467.639
549.178	464.193
549.306	460.664
549.435	468.546
549.563	467.471
549.691	463.597
549.819	468.286
549.947	468.202
550.075	466.597
550.203	467.101
550.331	463.118
550.460	467.000
550.588	462.622
550.716	466.773
550.844	463.235
550.972	466.000
551.100	468.496
551.228	463.521
551.356	461.185
551.485	465.378
551.613	463.218
551.741	463.067
551.869	463.849
551.997	463.874
552.125	463.630
552.253	463.983
552.381	458.832
552.510	463.008
552.638	460.672
552.766	462.765
552.894	455.613
553.022	462.403
553.150	456.000
553.278	456.370
553.406	458.134
553.535	453.345
553.663	457.748
553.791	458.269
553.919	457.899
554.047	465.328
554.175	456.218
554.303	454.403
554.431	457.176
554.560	458.261
554.688	458.731
554.816	452.975
554.944	456.454
555.072	454.076
555.200	458.681
555.328	455.361
555.456	459.731
555.585	457.303
555.713	452.328
555.841	457.546
555.969	454.571
556.097	456.639
556.225	458.210
556.353	458.840
556.481	458.210
556.610	462.513
556.738	460.202
556.866	459.437
556.994	460.639
557.122	459.353
557.250	462.303
557.378	463.235
557.506	460.185
557.635	457.731
557.763	455.403
557.891	463.521
558.019	457.866
558.147	464.437
558.275	462.235
558.403	458.647
558.531	460.252
558.660	464.748
558.788	460.370
558.916	460.403
559.044	456.101
559.172	459.504
559.300	462.252
559.428	459.697
559.556	459.395
559.685	461.748
559.813	456.605
559.941	459.370
560.069	459.235
560.197	459.235
560.325	463.403
560.453	454.387
560.581	461.412
560.710	455.840
560.838	459.294
560.966	462.126
561.094	462.395
561.222	454.050
561.350	459.866
561.478	455.571
561.606	460.160
561.735	454.345
561.863	457.966
561.991	454.992
562.119	452.034
562.247	457.681
562.375	463.143
562.503	460.025
562.631	450.479
562.760	457.723
562.888	454.059
563.016	458.983
563.144	455.160
563.272	454.504
563.400	455.672
563.528	450.916
563.656	451.933
563.785	457.059
563.913	454.076
564.041	457.588
564.169	450.891
564.297	453.782
564.425	452.807
564.553	461.008
564.681	459.773
564.810	454.151
564.938	456.966
565.066	458.193
565.194	462.000
565.322	456.950
565.450	462.966
565.578	458.958
565.706	460.042
565.835	465.538
565.963	462.815
566.091	460.630
566.219	458.092
566.347	462.420
566.475	460.815
566.603	463.193
566.731	461.731
566.860	462.882
566.988	461.479
567.116	466.092
567.244	469.244
567.372	466.941
567.500	468.857
567.628	468.765
567.756	470.571
567.885	469.857
568.013	470.639
568.141	470.504
568.269	472.109
568.397	474.000
568.525	468.748
568.653	479.933
568.781	474.622
568.910	479.143
569.038	479.975
569.166	478.555
569.294	474.555
569.422	474.445
569.550	480.891
569.678	475.538
569.806	477.168
569.935	476.941
570.063	480.731
570.191	479.252
570.319	477.487
570.447	479.160
570.575	479.328
570.703	479.118
570.831	484.160
570.960	476.067
571.088	482.496
571.216	476.950
571.344	480.866
571.472	485.042
571.600	489.269
571.728	485.277
571.856	484.630
571.985	482.849
572.113	491.714
572.241	490.950
572.369	486.941
572.497	488.950
572.625	489.101
572.753	490.866
572.881	483.882
573.010	490.025
573.138	490.588
573.266	488.824
573.394	493.597
573.522	497.958
573.650	491.950
573.778	488.773
573.906	496.042
574.035	493.471
574.163	495.908
574.291	487.908
574.419	494.950
574.547	492.950
574.675	497.319
574.803	493.672
574.931	497.496
575.060	497.798
575.188	492.496
575.316	493.017
575.444	492.782
575.572	500.882
575.700	490.966
575.828	501.941
575.956	501.244
576.085	492.706
576.213	496.025
576.341	494.319
576.469	496.950
576.597	499.353
576.725	500.622
576.853	496.840
576.981	497.529
577.110	495.597
577.238	498.420
577.366	493.555
577.494	492.891
577.622	497.681
577.750	498.605
577.878	497.714
578.006	497.866
578.135	496.613
578.263	492.370
578.391	501.462
578.519	500.563
578.647	504.487
578.775	495.084
578.903	498.143
579.031	498.714
579.160	497.286
579.288	491.714
579.416	495.655
579.544	492.933
579.672	498.739
579.800	496.050
579.928	498.311
580.056	497.395
580.185	498.647
580.313	501.798
580.441	505.706
580.569	499.025
580.697	499.714
580.825	510.874
580.953	504.210
581.081	505.101
581.210	508.580
581.338	509.294
581.466	505.185
581.594	507.227
581.722	505.134
581.850	510.118
581.978	501.050
582.106	508.891
582.235	517.739
582.363	508.529
582.491	515.521
582.619	514.563
582.747	518.849
582.875	521.050
583.003	521.420
583.131	514.647
583.260	520.966
583.388	521.277
583.516	523.185
583.644	517.277
583.772	528.176
583.900	527.815
584.028	528.017
584.156	527.008
584.285	532.429
584.413	530.218
584.541	531.210
584.669	537.143
584.797	534.353
584.925	531.773
585.053	540.403
585.181	540.176
585.310	537.689
585.438	537.882
585.566	541.580
585.694	549.050
585.822	545.487
585.950	544.706
586.078	547.353
586.206	549.672
586.335	547.017
586.463	543.706
586.591	554.807
586.719	550.723
586.847	544.261
586.975	550.975
587.103	553.538
587.231	546.992
587.360	551.941
587.488	553.143
587.616	555.807
587.744	560.504
587.872	554.202
588.000	556.672
588.128	559.328
588.256	553.723
588.385	563.050
588.513	559.244
588.641	558.008
588.769	564.244
588.897	565.588
589.025	561.639
589.153	559.084
589.281	560.891
589.410	559.832
589.538	559.252
589.666	563.420
589.794	566.555
589.922	562.361
590.050	562.361
590.178	554.731
590.306	559.672
590.435	566.731
590.563	557.176
590.691	567.353
590.819	564.185
590.947	568.555
591.075	566.076
591.203	560.513
591.331	575.050
591.460	574.008
591.588	565.059
591.716	567.714
591.844	566.244
591.972	571.118
592.100	567.571
592.228	562.017
592.356	574.765
592.485	564.664
592.613	568.454
592.741	575.269
592.869	577.370
592.997	574.202
593.125	577.437
593.253	577.689
593.381	577.193
593.510	576.210
593.638	577.521
593.766	574.084
593.894	580.950
594.022	579.151
594.150	577.958
594.278	579.109
594.406	577.218
594.535	579.538
594.663	588.739
594.791	584.084
594.919	580.042
595.047	588.613
595.175	587.824
595.303	587.891
595.431	589.185
595.560	595.697
595.688	590.244
595.816	591.370
595.944	594.471
596.072	596.983
596.200	597.529
596.328	592.361
596.456	597.294
596.585	597.311
596.713	602.689
596.841	596.126
596.969	601.143
597.097	603.773
597.225	602.403
597.353	611.798
597.481	597.168
597.610	607.849
597.738	615.311
597.866	600.042
597.994	613.571
598.122	615.496
598.250	609.765
598.378	602.815
598.506	613.479
598.635	607.681
598.763	613.546
598.891	609.706
599.019	616.303
599.147	607.067
599.275	612.471
599.403	610.076
599.531	611.807
599.660	617.966
599.788	620.689
599.916	615.294
600.044	616.227
600.172	615.639
600.300	620.630
600.428	620.513
600.556	620.924
600.685	622.185
600.813	620.176
600.941	624.151
601.069	625.134
601.197	629.437
601.325	619.193
601.453	630.294
601.581	637.655
601.710	631.118
601.838	638.908
601.966	630.261
602.094	632.160
602.222	634.807
602.350	634.866
602.478	638.185
602.606	644.672
602.735	640.134
602.863	647.034
602.991	643.647
603.119	647.748
603.247	645.664
603.375	647.462
603.503	644.168
603.631	648.571
603.760	656.420
603.888	653.353
604.016	655.765
604.144	664.328
604.272	657.866
604.400	657.017
604.528	658.277
604.656	659.269
604.785	669.697
604.913	665.529
605.041	666.580
605.169	671.899
605.297	666.109
605.425	667.840
605.553	669.597
605.681	668.252
605.810	669.345
605.938	666.034
606.066	671.874
606.194	671.092
606.322	672.403
606.450	677.437
606.578	678.639
606.706	676.269
606.835	676.756
606.963	675.261
607.091	680.277
607.219	679.227
607.347	678.008
607.475	685.496
607.603	688.202
607.731	681.916
607.860	675.891
607.988	680.202
608.116	683.681
608.244	680.286
608.372	687.361
608.500	683.412
608.628	690.151
608.756	683.370
608.885	684.756
609.013	685.748
609.141	684.437
609.269	687.000
609.397	685.017
609.525	689.261
609.653	688.756
609.781	684.286
609.910	684.235
610.038	682.832
610.166	687.118
610.294	688.941
610.422	694.790
610.550	688.664
610.678	692.529
610.806	690.866
610.935	695.378
611.063	692.857
611.191	690.815
611.319	688.916
611.447	687.025
611.575	692.437
611.703	689.445
611.831	692.546
611.960	689.050
612.088	698.891
612.216	697.008
612.344	696.269
612.472	687.118
612.600	696.412
612.728	696.723
612.856	697.504
612.985	690.815
613.113	692.227
613.241	696.487
613.369	697.235
613.497	697.151
613.625	699.748
613.753	702.353
613.881	699.462
614.010	695.000
614.138	695.160
614.266	702.815
614.394	691.328
614.522	703.235
614.650	708.345
614.778	702.689
614.906	709.580
615.035	706.655
615.163	702.008
615.291	707.899
615.419	704.336
615.547	693.739
615.675	713.151
615.803	706.160
615.931	717.605
616.060	716.008
616.188	706.521
616.316	714.706
616.444	713.630
616.572	715.664
616.700	709.765
616.828	719.975
616.956	721.471
617.085	720.672
617.213	724.840
617.341	719.210
617.469	716.000
617.597	721.168
617.725	723.168
617.853	727.218
617.981	714.286
618.110	728.882
618.238	723.244
618.366	732.899
618.494	735.025
618.622	732.950
618.750	729.227
618.878	732.076
619.006	732.899
619.135	744.151
619.263	738.647
619.391	730.857
619.519	743.311
619.647	744.101
619.775	749.294
619.903	750.277
620.031	749.412
620.160	747.655
620.288	750.832
620.416	757.992
620.544	764.059
620.672	756.689
620.800	759.092
620.928	759.252
621.056	757.840
621.185	760.689
621.313	754.361
621.441	775.798
621.569	774.429
621.697	765.857
621.825	775.664
621.953	773.899
622.081	781.714
622.210	772.605
622.338	787.185
622.466	774.160
622.594	782.471
622.722	782.739
622.850	779.697
622.978	783.336
623.106	778.462
623.235	792.336
623.363	789.521
623.491	780.504
623.619	785.639
623.747	779.773
623.875	794.563
624.003	780.882
624.131	786.529
624.260	785.840
624.388	798.975
624.516	793.311
624.644	788.597
624.772	793.950
624.900	800.437
625.028	794.588
625.156	803.218
625.285	794.782
625.413	798.059
625.541	801.950
625.669	794.681
625.797	800.840
625.925	794.882
626.053	804.529
626.181	806.950
626.310	805.429
626.438	803.538
626.566	797.244
626.694	803.269
626.822	802.319
626.950	801.613
627.078	813.882
627.206	804.319
627.335	813.941
627.463	814.143
627.591	806.664
627.719	805.319
627.847	806.185
627.975	813.916
628.103	802.395
628.231	821.874
628.360	812.739
628.488	821.639
628.616	813.874
628.744	814.269
628.872	809.370
629.000	813.950
629.128	817.882
629.256	819.639
629.385	823.210
629.513	812.622
629.641	822.134
629.769	813.487
629.897	817.866
630.025	811.336
630.153	827.008
630.281	822.000
630.410	818.218
630.538	831.924
630.666	825.866
630.794	827.311
630.922	824.790
631.050	826.202
631.178	824.529
631.306	824.622
631.435	831.916
631.563	832.185
631.691	824.311
631.819	833.092
631.947	830.891
632.075	833.655
632.203	835.748
632.331	829.597
632.460	835.487
632.588	835.025
632.716	838.092
632.844	833.504
632.972	831.008
633.100	840.059
633.228	846.017
633.356	837.538
633.485	837.176
633.613	837.798
633.741	838.639
633.869	835.950
633.997	836.908
634.125	841.210
634.253	825.504
634.381	832.017
634.510	845.143
634.638	832.983
634.766	834.235
634.894	838.487
635.022	833.891
635.150	840.504
635.278	844.916
635.406	841.975
635.535	848.471
635.663	851.798
635.791	836.563
635.919	847.765
636.047	841.017
636.175	835.118
636.303	842.059
636.431	848.790
636.560	841.706
636.688	845.395
636.816	845.782
636.944	845.109
637.072	847.975
637.200	843.050
637.328	833.891
637.456	847.765
637.585	848.908
637.713	843.782
637.841	847.193
637.969	846.664
638.097	847.462
638.225	844.605
638.353	841.765
638.481	852.630
638.610	852.689
638.738	853.218
638.866	846.950
638.994	850.555
639.122	845.261
639.250	860.092
639.378	853.622
639.506	848.134
639.635	853.303
639.763	848.218
639.891	851.790
640.019	860.605
640.147	860.697
640.275	856.790
640.403	849.218
640.531	857.160
640.660	865.277
640.788	861.185
640.916	854.218
641.044	871.882
641.172	857.513
641.300	865.538
641.428	865.723
641.556	872.824
641.685	861.597
641.813	863.311
641.941	876.882
642.069	874.185
642.197	873.034
642.325	871.496
642.453	871.571
642.581	870.639
642.710	869.908
642.838	879.311
642.966	876.370
643.094	873.824
643.222	863.874
643.350	877.244
643.478	880.445
643.606	880.908
643.735	880.370
643.863	877.487
643.991	895.487
644.119	883.773
644.247	889.849
644.375	882.765
644.503	893.706
644.631	888.227
644.760	891.244
644.888	892.916
645.016	884.773
645.144	895.479
645.272	895.025
645.400	897.143
645.528	896.538
645.656	886.311
645.785	897.521
645.913	897.597
646.041	897.824
646.169	877.387
646.297	886.555
646.425	891.311
646.553	888.866
646.681	895.034
646.810	887.218
646.938	894.479
647.066	889.193
647.194	889.034
647.322	889.336
647.450	887.361
647.578	905.454
647.706	888.008
647.835	898.824
647.963	888.857
648.091	889.815
648.219	892.160
648.347	892.076
648.475	892.050
648.603	895.462
648.731	894.714
648.860	888.244
648.988	896.849
649.116	888.034
649.244	887.445
649.372	879.824
649.500	884.605
649.628	897.420
649.756	887.471
649.885	879.924
650.013	882.790
650.141	887.403
650.269	878.168
650.397	886.748
650.525	875.462
650.653	878.857
650.781	873.857
650.910	873.882
651.038	872.445
651.166	876.597
651.294	869.227
651.422	873.983
651.550	872.202
651.678	872.681
651.806	859.311
651.935	869.639
652.063	860.496
652.191	863.067
652.319	859.832
652.447	864.437
652.575	861.361
652.703	854.731
652.831	851.118
652.960	856.613
653.088	851.118
653.216	844.975
653.344	853.958
653.472	848.983
653.600	843.916
653.728	848.143
653.856	846.504
653.985	846.605
654.113	846.664
654.241	851.773
654.369	851.193
654.497	851.647
654.625	839.950
654.753	845.782
654.881	847.303
655.010	846.361
655.138	840.849
655.266	848.210
655.394	825.798
655.522	841.345
655.650	831.933
655.778	841.782
655.906	841.353
656.035	835.765
656.163	834.227
656.291	833.269
656.419	843.151
656.547	839.748
656.675	830.958
656.803	826.706
656.931	831.462
657.060	830.370
657.188	839.118
657.316	829.765
657.444	828.378
657.572	829.899
657.700	830.546
657.828	830.042
657.956	829.714
658.085	836.588
658.213	825.832
658.341	825.328
658.469	828.420
658.597	830.832
658.725	828.345
658.853	819.445
658.981	815.773
659.110	827.000
659.238	820.067
659.366	832.874
659.494	815.966
659.622	817.756
659.750	822.193
659.878	822.387
660.006	821.235
660.135	818.773
660.263	820.454
660.391	815.765
660.519	820.815
660.647	821.227
660.775	822.471
660.903	809.866
661.031	810.084
661.160	815.782
661.288	816.185
661.416	821.832
661.544	816.319
661.672	811.630
661.800	812.361
661.928	816.412
662.056	811.924
662.185	808.647
662.313	808.857
662.441	815.353
662.569	807.067
662.697	811.168
662.825	808.454
662.953	811.538
663.081	804.328
663.210	803.412
663.338	816.622
663.466	805.748
663.594	802.353
663.722	795.370
663.850	802.294
663.978	796.765
664.106	805.185
664.235	806.706
664.363	804.765
664.491	797.849
664.619	804.311
664.747	798.874
664.875	800.319
665.003	794.891
665.131	803.445
665.260	794.176
665.388	791.092
665.516	789.933
665.644	783.185
665.772	794.261
665.900	790.849
666.028	792.647
666.156	790.151
666.285	788.050
666.413	800.681
666.541	791.765
666.669	791.143
666.797	780.807
666.925	788.403
667.053	796.950
667.181	787.521
667.310	771.353
667.438	777.866
667.566	787.882
667.694	790.345
667.822	790.303
667.950	780.076
668.078	781.790
668.206	781.891
668.335	780.151
668.463	786.908
668.591	775.387
668.719	775.092
668.847	782.403
668.975	768.286
669.103	781.328
669.231	781.210
669.360	779.622
669.488	774.908
669.616	776.126
669.744	776.672
669.872	773.529
670.000	782.773
670.128	767.639
670.256	770.739
670.385	772.210
670.513	777.269
670.641	768.714
670.769	771.613
670.897	760.697
671.025	771.723
671.153	770.269
671.281	771.134
671.410	768.059
671.538	769.160
671.666	762.017
671.794	755.353
671.922	765.966
672.050	757.168
672.178	766.697
672.306	758.538
672.435	757.664
672.563	760.269
672.691	750.622
672.819	754.891
672.947	751.857
673.075	746.529
673.203	747.529
673.331	744.050
673.460	743.706
673.588	745.798
673.716	747.824
673.844	743.681
673.972	748.034
674.100	739.597
674.228	743.084
674.356	734.126
674.485	742.807
674.613	727.429
674.741	733.017
674.869	735.487
674.997	729.924
675.125	727.832
675.253	732.218
675.381	728.429
675.510	726.832
675.638	728.151
675.766	727.647
675.894	730.555
676.022	716.975
676.150	721.429
676.278	724.395
676.406	720.429
676.535	713.126
676.663	711.202
676.791	706.832
676.919	709.160
677.047	710.227
677.175	696.403
677.303	711.134
677.431	704.286
677.560	702.294
677.688	700.807
677.816	693.101
677.944	695.840
678.072	696.143
678.200	696.714
678.328	693.840
678.456	685.773
678.585	682.555
678.713	687.185
678.841	684.185
678.969	678.471
679.097	686.765
679.225	690.563
679.353	679.017
679.481	672.227
679.610	682.706
679.738	683.765
679.866	675.445
679.994	673.840
680.122	672.286
680.250	673.580
680.378	670.076
680.506	670.706
680.635	666.798
680.763	667.706
680.891	660.420
681.019	667.261
681.147	667.849
681.275	660.630
681.403	661.916
681.531	658.824
681.660	658.723
681.788	658.437
681.916	653.899
682.044	659.445
682.172	652.420
682.300	647.336
682.428	650.294
682.556	649.588
682.685	642.042
682.813	650.454
682.941	644.597
683.069	640.227
683.197	648.597
683.325	644.059
683.453	647.655
683.581	639.353
683.710	638.370
683.838	639.840
683.966	639.487
684.094	643.168
684.222	640.210
684.350	637.134
684.478	635.966
684.606	638.790
684.735	634.134
684.863	632.193
684.991	630.866
685.119	632.807
685.247	629.563
685.375	628.092
685.503	625.555
685.631	631.496
685.760	636.143
685.888	631.874
686.016	620.017
686.144	617.815
686.272	617.311
686.400	629.328
686.528	623.647
686.656	622.361
686.785	620.739
686.913	620.504
687.041	618.697
687.169	616.252
687.297	619.622
687.425	611.941
687.553	611.765
687.681	617.210
687.810	614.672
687.938	610.639
688.066	613.521
688.194	618.849
688.322	611.546
688.450	608.697
688.578	609.387
688.706	613.832
688.835	611.454
688.963	611.966
689.091	608.866
689.219	605.941
689.347	603.504
689.475	610.353
689.603	603.723
689.731	611.664
689.860	597.773
689.988	598.773
690.116	606.210
690.244	605.706
690.372	601.034
690.500	597.874
690.628	603.613
690.756	600.042
690.885	596.983
691.013	593.933
691.141	595.168
691.269	598.908
691.397	606.387
691.525	600.546
691.653	602.403
691.781	596.504
691.910	593.555
692.038	593.462
692.166	597.866
692.294	592.345
692.422	587.378
692.550	593.899
692.678	589.832
692.806	584.412
692.935	587.387
693.063	583.420
693.191	590.941
693.319	580.412
693.447	579.916
693.575	584.143
693.703	580.739
693.831	586.529
693.960	580.000
694.088	581.420
694.216	580.319
694.344	575.924
694.472	578.546
694.600	567.697
694.728	574.958
694.856	575.723
694.985	579.445
695.113	572.227
695.241	564.126
695.369	570.815
695.497	571.958
695.625	574.513
695.753	566.118
695.881	569.134
696.010	562.210
696.138	561.050
696.266	562.445
696.394	559.294
696.522	559.185
696.650	553.504
696.778	557.597
696.906	557.185
697.035	551.210
697.163	551.000
697.291	549.252
697.419	553.336
697.547	548.134
697.675	547.134
697.803	550.706
697.931	549.168
698.060	540.538
698.188	537.613
698.316	543.462
698.444	535.303
698.572	534.210
698.700	546.857
698.828	542.202
698.956	532.311
699.085	530.908
699.213	527.202
699.341	528.126
699.469	531.084
699.597	533.429
699.725	533.160
699.853	524.143
699.981	531.706
700.110	525.412
700.238	532.521
700.366	525.168
700.494	522.420
700.622	522.134
700.750	517.227
700.878	524.185
701.006	514.479
701.135	516.042
701.263	516.277
701.391	513.202
701.519	518.395
701.647	512.899
701.775	514.311
701.903	517.639
702.031	517.034
702.160	511.261
702.288	508.008
702.416	509.126
702.544	507.269
702.672	503.008
702.800	501.437
702.928	508.655
703.056	506.739
703.185	501.605
703.313	503.496
703.441	501.445
703.569	501.395
703.697	502.176
703.825	499.773
703.953	501.630
704.081	500.328
704.210	493.731
704.338	501.151
704.466	489.588
704.594	491.151
704.722	491.311
704.850	491.294
704.978	493.420
705.106	492.983
705.235	480.597
705.363	481.782
705.491	484.689
705.619	488.277
705.747	483.345
705.875	482.168
706.003	481.311
706.131	484.479
706.260	477.882
706.388	477.210
706.516	477.538
706.644	478.874
706.772	478.151
706.900	467.202
707.028	473.630
707.156	467.000
707.285	475.202
707.413	470.235
707.541	466.571
707.669	468.420
707.797	468.765
707.925	467.580
708.053	468.555
708.181	462.748
708.310	460.723
708.438	460.891
708.566	456.529
708.694	457.782
708.822	456.630
708.950	454.008
709.078	453.546
709.206	450.252
709.335	452.000
709.463	450.630
709.591	449.647
709.719	451.109
709.847	451.815
709.975	444.731
710.103	443.395
710.231	443.857
710.360	441.588
710.488	439.521
710.616	442.697
710.744	437.639
710.872	441.487
711.000	436.840
711.128	430.857
711.256	431.866
711.385	435.151
711.513	432.555
711.641	430.126
711.769	433.412
711.897	433.563
712.025	428.504
712.153	427.689
712.281	427.672
712.410	428.210
712.538	429.193
712.666	422.529
712.794	422.933
712.922	426.504
713.050	424.748
713.178	416.084
713.306	425.244
713.435	421.050
713.563	419.714
713.691	423.218
713.819	423.773
713.947	418.966
714.075	413.874
714.203	419.521
714.331	414.613
714.460	414.916
714.588	416.151
714.716	409.034
714.844	416.697
714.972	406.025
715.100	409.723
715.228	415.042
715.356	410.538
715.485	409.655
715.613	405.874
715.741	404.303
715.869	406.218
715.997	403.874
716.125	400.664
716.253	403.630
716.381	405.294
716.510	409.227
716.638	407.992
716.766	399.412
716.894	404.067
717.022	396.672
717.150	397.941
717.278	401.874
717.406	399.832
717.535	398.496
717.663	398.202
717.791	401.739
717.919	395.168
718.047	396.798
718.175	397.042
718.303	396.092
718.431	394.950
718.560	395.807
718.688	393.941
718.816	393.269
718.944	390.151
719.072	395.504
719.200	392.277
719.328	388.891
719.456	391.261
719.585	392.160
719.713	395.958
719.841	392.992
719.969	388.647
720.097	387.185
720.225	385.697
720.353	386.403
720.481	390.983
720.610	387.319
720.738	384.277
720.866	384.370
720.994	381.513
721.122	387.605
721.250	381.882
721.378	379.664
721.506	381.294
721.635	384.882
721.763	386.378
721.891	379.176
722.019	381.790
722.147	379.756
722.275	376.134
722.403	377.454
722.531	376.412
722.660	378.723
722.788	377.286
722.916	376.597
723.044	371.555
723.172	369.933
723.300	372.311
723.428	373.597
723.556	373.479
723.685	368.168
723.813	371.067
723.941	364.050
724.069	368.319
724.197	368.874
724.325	363.504
724.453	367.756
724.581	364.622
724.710	365.504
724.838	364.000
724.966	357.807
725.094	361.697
725.222	359.025
725.350	357.807
725.478	356.958
725.606	356.756
725.735	353.689
725.863	361.563
725.991	356.387
726.119	357.605
726.247	353.151
726.375	354.580
726.503	357.353
726.631	354.798
726.760	349.765
726.888	353.193
727.016	348.050
727.144	348.000
727.272	346.218
727.400	343.471
727.528	343.975
727.656	345.630
727.785	342.345
727.913	343.504
728.041	340.076
728.169	345.756
728.297	340.328
728.425	342.874
728.553	340.084
728.681	340.227
728.810	341.269
728.938	334.261
729.066	338.387
729.194	337.874
729.322	338.756
729.450	333.529
729.578	334.857
729.706	335.891
729.835	335.034
729.963	328.908
730.091	332.210
730.219	333.353
730.347	332.445
730.475	330.420
730.603	328.647
730.731	330.345
730.860	331.739
730.988	328.168
731.116	322.824
731.244	332.840
731.372	328.966
731.500	331.370
731.628	326.227
731.756	325.672
731.885	325.840
732.013	326.311
732.141	325.286
732.269	320.824
732.397	318.966
732.525	318.571
732.653	319.950
732.781	325.084
732.910	324.622
733.038	320.504
733.166	320.126
733.294	319.832
733.422	321.588
733.550	316.916
733.678	318.429
733.806	320.193
733.935	316.218
734.063	314.874
734.191	319.261
734.319	314.143
734.447	313.462
734.575	314.134
734.703	312.471
734.831	312.613
734.960	311.966
735.088	310.950
735.216	309.899
735.344	310.832
735.472	309.664
735.600	309.613
735.728	308.378
735.856	306.630
735.985	308.513
736.113	312.218
736.241	309.790
736.369	308.227
736.497	303.345
736.625	305.227
736.753	307.252
736.881	305.748
737.010	308.723
737.138	303.050
737.266	304.277
737.394	304.345
737.522	302.714
737.650	304.798
737.778	303.966
737.906	298.908
738.035	298.798
738.163	300.185
738.291	303.647
738.419	296.714
738.547	299.756
738.675	300.882
738.803	297.672
738.931	298.151
739.060	300.218
739.188	298.429
739.316	296.261
739.444	295.731
739.572	298.403
739.700	296.496
739.828	298.202
739.956	292.227
740.085	294.992
740.213	294.975
740.341	289.874
740.469	293.336
740.597	292.655
740.725	296.857
740.853	293.782
740.981	298.328
741.110	293.992
741.238	291.336
741.366	292.958
741.494	293.168
741.622	287.025
741.750	296.361
741.878	293.479
742.006	293.328
742.135	290.790
742.263	295.076
742.391	287.723
742.519	291.983
742.647	288.765
742.775	289.765
742.903	290.311
743.031	287.420
743.160	293.185
743.288	288.706
743.416	288.328
743.544	289.101
743.672	291.403
743.800	288.025
743.928	291.277
744.056	289.227
744.185	287.647
744.313	289.025
744.441	286.580
744.569	287.924
744.697	287.538
744.825	288.034
744.953	287.168
745.081	288.765
745.210	286.597
745.338	289.067
745.466	285.336
745.594	288.109
745.722	285.185
745.850	282.857
745.978	283.739
746.106	284.714
746.235	284.487
746.363	285.975
746.491	284.605
746.619	285.370
746.747	280.471
746.875	282.933
747.003	280.832
747.131	284.521
747.260	279.983
747.388	283.748
747.516	282.286
747.644	281.244
747.772	282.454
747.900	275.891
748.028	280.840
748.156	277.765
748.285	279.756
748.413	277.689
748.541	279.504
748.669	277.244
748.797	281.697
748.925	274.328
749.053	278.597
749.181	277.210
749.310	277.235
749.438	273.563
749.566	276.639
749.694	273.555
749.822	273.908
749.950	276.504
750.078	277.311
750.206	273.370
750.335	270.630
750.463	270.790
750.591	271.597
750.719	273.218
750.847	270.395
750.975	270.000
751.103	266.563
751.231	270.857
751.360	271.042
751.488	269.580
751.616	266.387
751.744	270.748
751.872	265.244
752.000	269.756
752.128	270.286
752.256	264.000
752.385	265.849
752.513	267.866
752.641	261.034
752.769	266.202
752.897	265.336
753.025	260.529
753.153	263.798
753.281	263.176
753.410	262.908
753.538	261.597
753.666	259.639
753.794	259.857
753.922	264.210
754.050	261.899
754.178	260.941
754.306	255.706
754.435	257.218
754.563	261.420
754.691	259.454
754.819	256.101
754.947	258.445
755.075	257.798
755.203	258.824
755.331	255.824
755.460	256.353
755.588	256.950
755.716	251.437
755.844	254.076
755.972	256.487
756.100	256.630
756.228	255.672
756.356	253.059
756.485	255.361
756.613	253.622
756.741	252.387
756.869	252.950
756.997	253.084
757.125	253.218
757.253	253.017
757.381	251.269
757.510	252.311
757.638	251.345
757.766	250.521
757.894	249.748
758.022	250.126
758.150	249.790
758.278	249.824
758.406	247.067
758.535	251.319
758.663	248.328
758.791	247.328
758.919	248.479
759.047	249.370
759.175	250.807
759.303	247.160
759.431	247.042
759.560	249.193
759.688	247.538
759.816	246.277
759.944	245.286
760.072	242.160
760.200	243.622
760.328	248.277
760.456	244.412
760.585	245.597
760.713	243.924
760.841	246.454
760.969	244.655
761.097	244.958
761.225	243.765
761.353	245.050
761.481	243.992
761.610	244.353
761.738	242.731
761.866	242.697
761.994	241.109
762.122	241.538
762.250	240.891
762.378	237.227
762.506	242.168
762.635	238.067
762.763	241.496
762.891	242.941
763.019	238.580
763.147	240.050
763.275	244.487
763.403	237.941
763.531	238.790
763.660	238.008
763.788	236.084
763.916	243.008
764.044	238.882
764.172	238.134
764.300	237.941
764.428	237.840
764.556	237.042
764.685	238.765
764.813	236.462
764.941	239.445
765.069	234.613
765.197	234.790
765.325	234.319
765.453	234.160
765.581	238.756
765.710	231.975
765.838	234.277
765.966	237.706
766.094	234.454
766.222	234.941
766.350	231.328
766.478	236.319
766.606	232.361
766.735	236.765
766.863	233.403
766.991	230.538
767.119	232.454
767.247	229.101
767.375	229.588
767.503	231.160
767.631	234.235
767.760	234.412
767.888	231.160
768.016	231.328
768.144	229.395
768.272	231.261
768.400	236.395
768.528	234.454
768.656	229.756
768.785	225.756
768.913	232.975
769.041	232.227
769.169	228.168
769.297	229.513
769.425	227.109
769.553	230.345
769.681	227.950
769.810	234.218
769.938	227.420
770.066	231.429
770.194	229.504
770.322	230.655
770.450	229.395
770.578	230.605
770.706	229.529
770.835	228.899
770.963	228.202
771.091	225.840
771.219	230.378
771.347	227.336
771.475	226.714
771.603	226.975
771.731	226.126
771.860	227.966
771.988	226.429
772.116	226.588
772.244	226.891
772.372	226.445
772.500	225.773
772.628	226.916
772.756	227.034
772.885	226.294
773.013	227.008
773.141	223.639
773.269	224.361
773.397	228.059
773.525	221.529
773.653	224.286
773.781	225.538
773.910	221.807
774.038	220.882
774.166	222.168
774.294	224.151
774.422	223.269
774.550	222.933
774.678	220.756
774.806	222.025
774.935	223.025
775.063	221.269
775.191	222.286
775.319	219.395
775.447	217.950
775.575	222.748
775.703	219.101
775.831	218.017
775.960	215.840
776.088	219.168
776.216	219.807
776.344	217.849
776.472	219.445
776.600	221.487
776.728	216.655
776.856	218.630
776.985	218.084
777.113	216.555
777.241	217.782
777.369	217.899
777.497	217.412
777.625	217.992
777.753	214.151
777.881	218.294
778.010	212.605
778.138	218.303
778.266	215.597
778.394	215.454
778.522	216.546
778.650	216.580
778.778	212.924
778.906	217.815
779.035	215.723
779.163	211.420
779.291	214.168
779.419	212.630
779.547	210.689
779.675	210.866
779.803	212.605
779.931	211.118
780.060	213.210
780.188	212.067
780.316	211.580
780.444	210.773
780.572	208.042
780.700	210.639
780.828	208.664
780.956	210.462
781.085	209.613
781.213	211.655
781.341	209.000
781.469	210.748
781.597	210.092
781.725	208.529
781.853	208.151
781.981	207.395
782.110	207.336
782.238	207.739
782.366	206.849
782.494	206.244
782.622	208.504
782.750	203.941
782.878	204.294
783.006	205.109
783.135	203.387
783.263	205.513
783.391	207.210
783.519	202.697
783.647	202.622
783.775	200.975
783.903	201.874
784.031	199.639
784.160	202.311
784.288	199.613
784.416	200.588
784.544	199.723
784.672	202.202
784.800	200.437
784.928	198.084
785.056	198.092
785.185	198.252
785.313	195.950
785.441	198.370
785.569	198.857
785.697	196.118
785.825	195.445
785.953	195.849
786.081	196.126
786.210	195.076
786.338	198.092
786.466	195.050
786.594	194.319
786.722	193.429
786.850	191.824
786.978	191.403
787.106	191.664
787.235	191.790
787.363	195.193
787.491	191.748
787.619	191.076
787.747	189.487
787.875	190.017
788.003	189.218
788.131	187.218
788.260	188.034
788.388	190.765
788.516	187.042
788.644	188.773
788.772	186.782
788.900	188.882
789.028	185.185
789.156	187.067
789.285	185.765
789.413	185.899
789.541	185.546
789.669	184.210
789.797	183.782
789.925	182.891
790.053	183.697
790.181	186.555
790.310	181.866
790.438	182.504
790.566	181.168
790.694	180.101
790.822	180.529
790.950	181.571
791.078	181.924
791.206	177.597
791.335	179.950
791.463	182.277
791.591	178.689
791.719	179.370
791.847	181.571
791.975	175.160
792.103	177.303
792.231	180.294
792.360	175.437
792.488	175.496
792.616	179.429
792.744	178.151
792.872	174.681
793.000	173.866
793.128	174.227
793.256	175.126
793.385	174.000
793.513	174.277
793.641	174.538
793.769	173.269
793.897	176.563
794.025	176.429
794.153	173.941
794.281	175.008
794.410	171.487
794.538	173.143
794.666	170.714
794.794	171.798
794.922	171.689
795.050	169.647
795.178	172.479
795.306	169.244
795.435	168.092
795.563	168.294
795.691	167.723
795.819	168.101
795.947	168.218
796.075	168.235
796.203	167.714
796.331	167.345
796.460	164.924
796.588	168.429
796.716	164.866
796.844	165.092
796.972	165.689
797.100	165.017
797.228	165.294
797.356	167.798
797.485	165.597
797.613	165.597
797.741	165.563
797.869	164.630
797.997	163.647
798.125	165.378
798.253	162.798
798.381	161.941
798.510	160.874
798.638	160.647
798.766	162.437
798.894	161.706
799.022	160.916
799.150	163.328
799.278	160.672
799.406	162.160
799.535	160.765
799.663	162.050
799.791	160.277
799.919	160.151
800.047	159.748
800.175	158.958
800.303	158.294
800.431	157.950
800.560	158.454
800.688	158.244
800.816	156.664
800.944	157.891
801.072	159.866
801.200	157.983
801.328	155.756
801.456	157.815
801.585	156.630
801.713	157.412
801.841	155.345
801.969	157.277
802.097	156.185
802.225	157.479
802.353	156.353
802.481	156.429
802.610	154.950
802.738	153.950
802.866	155.866
802.994	153.857
803.122	154.387
803.250	154.176
803.378	152.353
803.506	152.160
803.635	153.538
803.763	153.101
803.891	150.639
804.019	153.193
804.147	153.941
804.275	152.101
804.403	149.345
804.531	149.479
804.660	148.950
804.788	149.639
804.916	147.513
805.044	150.353
805.172	148.563
805.300	148.000
805.428	146.983
805.556	149.193
805.685	150.773
805.813	147.630
805.941	148.210
806.069	148.261
806.197	150.790
806.325	149.361
806.453	146.765
806.581	146.916
806.710	144.739
806.838	146.731
806.966	146.613
807.094	146.042
807.222	146.378
807.350	146.714
807.478	143.328
807.606	143.227
807.735	144.748
807.863	144.151
807.991	145.521
808.119	141.908
808.247	145.311
808.375	142.966
808.503	143.933
808.631	142.319
808.760	142.471
808.888	143.101
809.016	142.092
809.144	143.815
809.272	142.555
809.400	144.966
809.528	141.958
809.656	139.857
809.785	141.765
809.913	141.311
810.041	140.370
810.169	140.370
810.297	140.269
810.425	141.151
810.553	137.992
810.681	138.370
810.810	138.950
810.938	138.134
811.066	138.437
811.194	140.336
811.322	137.782
811.450	139.143
811.578	138.378
811.706	138.454
811.835	138.168
811.963	137.336
812.091	138.815
812.219	137.412
812.347	137.218
812.475	137.277
812.603	137.958
812.731	135.571
812.860	137.050
812.988	136.277
813.116	137.597
813.244	134.227
813.372	134.899
813.500	134.218
813.628	136.555
813.756	134.765
813.885	134.664
814.013	134.975
814.141	135.563
814.269	134.487
814.397	134.798
814.525	133.748
814.653	134.504
814.781	131.420
814.910	133.882
815.038	134.714
815.166	134.739
815.294	133.311
815.422	133.504
815.550	133.504
815.678	130.899
815.806	134.563
815.935	130.529
816.063	131.622
816.191	132.244
816.319	132.034
816.447	132.613
816.575	132.840
816.703	129.773
816.831	130.059
816.960	133.160
817.088	129.437
817.216	130.782
817.344	131.244
817.472	131.059
817.600	130.210
817.728	128.874
817.856	130.454
817.985	127.824
818.113	129.782
818.241	127.353
818.369	128.622
818.497	128.597
818.625	128.958
818.753	128.261
818.881	127.513
819.010	127.168
819.138	126.361
819.266	128.723
819.394	125.849
819.522	126.664
819.650	128.269
819.778	125.622
819.906	128.092
820.035	128.597
820.163	125.605
820.291	126.000
820.419	126.151
820.547	127.084
820.675	124.504
820.803	124.950
820.931	125.126
821.060	122.950
821.188	126.613
821.316	126.050
821.444	125.000
821.572	124.168
821.700	125.403
821.828	125.840
821.956	126.765
822.085	125.227
822.213	125.210
822.341	123.496
822.469	124.966
822.597	122.294
822.725	124.832
822.853	123.790
822.981	122.681
823.110	124.849
823.238	122.756
823.366	123.672
823.494	122.126
823.622	123.210
823.750	122.378
823.878	122.899
824.006	124.084
824.135	122.874
824.263	122.950
824.391	120.798
824.519	122.563
824.647	122.966
824.775	121.311
824.903	122.176
825.031	120.563
825.160	121.252
825.288	120.513
825.416	121.857
825.544	119.655
825.672	121.655
825.800	119.992
825.928	122.025
826.056	119.697
826.185	120.134
826.313	120.891
826.441	120.092
826.569	121.647
826.697	121.034
826.825	120.395
826.953	119.983
827.081	119.437
827.210	119.034
827.338	118.908
827.466	119.849
827.594	119.151
827.722	117.748
827.850	117.655
827.978	118.311
828.106	118.353
828.235	120.387
828.363	118.756
828.491	118.286
828.619	117.563
828.747	118.748
828.875	117.588
829.003	119.059
829.131	118.126
829.260	117.529
829.388	118.966
829.516	117.378
829.644	118.866
829.772	118.151
829.900	117.092
830.028	116.328
830.156	116.218
830.285	117.303
830.413	116.168
830.541	116.571
830.669	116.891
830.797	115.714
830.925	117.874
831.053	115.403
831.181	115.697
831.310	116.891
831.438	116.059
831.566	116.109
831.694	113.983
831.822	116.563
831.950	115.025
832.078	115.916
832.206	116.252
832.335	115.538
832.463	115.151
832.591	116.210
832.719	113.849
832.847	114.084
832.975	113.504
833.103	114.059
833.231	114.504
833.360	114.706
833.488	113.630
833.616	113.395
833.744	113.303
833.872	114.218
834.000	116.311
834.128	113.832
834.256	113.210
834.385	113.639
834.513	114.437
834.641	112.765
834.769	114.050
834.897	113.277
835.025	113.235
835.153	112.126
835.281	112.983
835.410	112.378
835.538	114.319
835.666	113.815
835.794	113.252
835.922	112.950
836.050	112.739
836.178	114.076
836.306	113.118
836.435	113.311
836.563	112.025
836.691	112.899
836.819	113.504
836.947	110.479
837.075	112.244
837.203	111.605
837.331	111.613
837.460	112.252
837.588	111.933
837.716	112.622
837.844	112.832
837.972	112.034
838.100	112.168
838.228	112.504
838.356	110.916
838.485	109.714
838.613	111.261
838.741	110.714
838.869	110.076
838.997	111.034
839.125	109.647
839.253	110.235
839.381	110.134
839.510	109.975
839.638	110.639
839.766	111.076
839.894	109.899
840.022	111.227
840.150	110.109
840.278	110.269
840.406	110.218
840.535	110.176
840.663	109.454
840.791	108.647
840.919	110.286
841.047	109.176
841.175	109.345
841.303	109.202
841.431	108.773
841.560	108.639
841.688	109.034
841.816	109.689
841.944	109.269
842.072	110.034
842.200	109.118
842.328	110.076
842.456	109.731
842.585	109.387
842.713	109.378
842.841	109.244
842.969	108.218
843.097	109.487
843.225	108.445
843.353	109.277
843.481	108.319
843.610	109.269
843.738	108.605
843.866	108.849
