70-100-unpol_at_679.99nm_cut_at_1283.50Y_01.dat
24.01.2024
11:29:54
cut middle at Y: 1283.50
top cursor: 1343 down cursor: 1224 mean of: 119 lines , 2560 datapoints
wavelength(nm)	intensity[arb. units]
515.994	1662.857
516.122	1567.328
516.250	1541.866
516.378	1526.924
516.506	1529.336
516.635	1531.941
516.763	1545.882
516.891	1561.017
517.019	1557.109
517.147	1557.160
517.275	1549.647
517.403	1550.832
517.531	1555.529
517.660	1552.723
517.788	1557.555
517.916	1567.798
518.044	1542.050
518.172	1558.294
518.300	1570.025
518.428	1559.185
518.556	1566.000
518.685	1562.546
518.813	1563.059
518.941	1578.849
519.069	1570.798
519.197	1567.908
519.325	1579.504
519.453	1580.832
519.581	1598.739
519.710	1584.269
519.838	1589.714
519.966	1605.798
520.094	1595.235
520.222	1601.655
520.350	1614.866
520.478	1637.151
520.606	1636.647
520.735	1620.992
520.863	1640.630
520.991	1647.916
521.119	1638.353
521.247	1648.311
521.375	1660.975
521.503	1666.798
521.631	1680.067
521.760	1667.706
521.888	1672.849
522.016	1685.790
522.144	1674.034
522.272	1682.118
522.400	1691.832
522.528	1706.697
522.656	1688.286
522.785	1708.941
522.913	1713.202
523.041	1697.412
523.169	1702.882
523.297	1709.462
523.425	1713.496
523.553	1710.076
523.681	1708.235
523.810	1723.756
523.938	1731.109
524.066	1722.538
524.194	1720.563
524.322	1733.109
524.450	1729.235
524.578	1725.143
524.706	1740.067
524.835	1729.899
524.963	1737.739
525.091	1726.042
525.219	1732.008
525.347	1719.235
525.475	1729.563
525.603	1737.723
525.731	1733.160
525.860	1747.261
525.988	1725.361
526.116	1727.739
526.244	1739.479
526.372	1726.134
526.500	1740.462
526.628	1751.151
526.756	1732.067
526.885	1749.092
527.013	1746.084
527.141	1745.084
527.269	1748.218
527.397	1735.908
527.525	1753.134
527.653	1742.605
527.781	1742.017
527.910	1769.731
528.038	1769.395
528.166	1784.983
528.294	1756.143
528.422	1763.504
528.550	1782.395
528.678	1773.067
528.806	1779.924
528.935	1787.303
529.063	1786.782
529.191	1793.597
529.319	1800.723
529.447	1805.765
529.575	1795.126
529.703	1810.622
529.831	1817.521
529.960	1822.975
530.088	1810.639
530.216	1818.983
530.344	1817.277
530.472	1824.000
530.600	1827.092
530.728	1824.689
530.856	1833.697
530.985	1824.387
531.113	1825.681
531.241	1826.134
531.369	1842.084
531.497	1835.092
531.625	1831.832
531.753	1827.202
531.881	1838.210
532.010	1834.193
532.138	1828.176
532.266	1828.101
532.394	1844.336
532.522	1813.328
532.650	1823.580
532.778	1837.521
532.906	1828.857
533.035	1826.882
533.163	1812.193
533.291	1816.689
533.419	1812.403
533.547	1823.908
533.675	1828.059
533.803	1814.378
533.931	1822.076
534.060	1819.790
534.188	1829.832
534.316	1836.622
534.444	1824.017
534.572	1836.160
534.700	1832.966
534.828	1825.605
534.956	1845.529
535.085	1846.866
535.213	1844.622
535.341	1859.160
535.469	1834.723
535.597	1845.950
535.725	1875.815
535.853	1866.689
535.981	1864.924
536.110	1881.445
536.238	1884.966
536.366	1900.378
536.494	1881.227
536.622	1897.050
536.750	1910.168
536.878	1902.126
537.006	1914.084
537.135	1911.529
537.263	1923.294
537.391	1936.126
537.519	1914.933
537.647	1943.513
537.775	1944.622
537.903	1952.118
538.031	1941.092
538.160	1949.983
538.288	1958.950
538.416	1971.059
538.544	1963.193
538.672	1974.252
538.800	1976.975
538.928	1972.336
539.056	1977.924
539.185	1974.496
539.313	1960.815
539.441	1968.681
539.569	1989.723
539.697	1990.824
539.825	1989.084
539.953	1989.235
540.081	1975.815
540.210	1991.866
540.338	1975.403
540.466	1989.672
540.594	1998.941
540.722	1982.958
540.850	1997.185
540.978	1990.891
541.106	1993.513
541.235	2001.412
541.363	1982.697
541.491	1990.555
541.619	1991.143
541.747	1984.319
541.875	2007.639
542.003	1991.933
542.131	2008.361
542.260	2014.042
542.388	2004.252
542.516	2005.252
542.644	2004.210
542.772	2012.731
542.900	2017.496
543.028	2022.067
543.156	2002.504
543.285	2030.748
543.413	2011.790
543.541	2016.882
543.669	2029.345
543.797	2018.353
543.925	2010.824
544.053	2034.723
544.181	2020.563
544.310	2016.513
544.438	2034.529
544.566	2024.958
544.694	2029.613
544.822	2038.782
544.950	2041.958
545.078	2020.269
545.206	2023.529
545.335	2056.933
545.463	2037.622
545.591	2020.824
545.719	2038.252
545.847	2044.454
545.975	2050.017
546.103	2036.420
546.231	2052.059
546.360	2043.975
546.488	2039.084
546.616	2046.084
546.744	2059.319
546.872	2047.832
547.000	2058.790
547.128	2046.882
547.256	2049.832
547.385	2031.227
547.513	2037.765
547.641	2057.311
547.769	2059.336
547.897	2064.496
548.025	2061.529
548.153	2066.933
548.281	2045.042
548.410	2068.807
548.538	2066.454
548.666	2062.983
548.794	2064.714
548.922	2060.916
549.050	2072.479
549.178	2073.101
549.306	2080.067
549.435	2078.529
549.563	2069.025
549.691	2060.000
549.819	2084.176
549.947	2091.202
550.075	2067.109
550.203	2080.983
550.331	2075.773
550.460	2077.269
550.588	2076.034
550.716	2084.126
550.844	2080.336
550.972	2060.588
551.100	2072.445
551.228	2074.824
551.356	2066.706
551.485	2055.756
551.613	2057.496
551.741	2049.714
551.869	2048.151
551.997	2044.336
552.125	2056.160
552.253	2041.739
552.381	2024.471
552.510	2040.916
552.638	2035.672
552.766	2032.370
552.894	2036.445
553.022	2022.605
553.150	2023.017
553.278	2033.765
553.406	2024.017
553.535	2011.504
553.663	2021.471
553.791	2028.143
553.919	2018.664
554.047	2032.983
554.175	2016.034
554.303	2014.261
554.431	2003.042
554.560	2010.689
554.688	2034.277
554.816	2007.336
554.944	2017.622
555.072	2015.739
555.200	2010.748
555.328	2022.941
555.456	2023.950
555.585	2037.429
555.713	2027.437
555.841	2034.521
555.969	2022.462
556.097	2043.176
556.225	2036.445
556.353	2043.134
556.481	2037.798
556.610	2044.916
556.738	2063.277
556.866	2055.050
556.994	2052.966
557.122	2035.471
557.250	2063.076
557.378	2054.622
557.506	2052.933
557.635	2067.160
557.763	2073.866
557.891	2087.109
558.019	2068.714
558.147	2078.008
558.275	2072.462
558.403	2089.050
558.531	2067.092
558.660	2084.731
558.788	2076.765
558.916	2107.420
559.044	2089.160
559.172	2089.235
559.300	2106.017
559.428	2103.134
559.556	2085.387
559.685	2101.504
559.813	2094.286
559.941	2097.277
560.069	2097.395
560.197	2096.731
560.325	2098.118
560.453	2090.815
560.581	2090.874
560.710	2098.479
560.838	2097.639
560.966	2093.227
561.094	2114.782
561.222	2088.933
561.350	2093.277
561.478	2088.050
561.606	2104.899
561.735	2084.605
561.863	2090.630
561.991	2071.504
562.119	2083.513
562.247	2072.882
562.375	2077.958
562.503	2077.798
562.631	2065.756
562.760	2070.437
562.888	2078.387
563.016	2069.681
563.144	2072.160
563.272	2063.546
563.400	2063.218
563.528	2064.277
563.656	2081.092
563.785	2068.303
563.913	2076.420
564.041	2054.092
564.169	2067.034
564.297	2061.042
564.425	2074.000
564.553	2102.622
564.681	2079.983
564.810	2075.328
564.938	2076.714
565.066	2067.555
565.194	2093.269
565.322	2092.109
565.450	2085.723
565.578	2096.101
565.706	2084.244
565.835	2095.076
565.963	2092.361
566.091	2091.807
566.219	2110.672
566.347	2107.101
566.475	2099.689
566.603	2109.908
566.731	2107.681
566.860	2117.353
566.988	2110.891
567.116	2141.824
567.244	2137.706
567.372	2139.319
567.500	2140.403
567.628	2131.555
567.756	2133.202
567.885	2143.420
568.013	2168.193
568.141	2151.958
568.269	2149.714
568.397	2161.076
568.525	2163.294
568.653	2174.244
568.781	2177.151
568.910	2191.504
569.038	2186.647
569.166	2189.151
569.294	2194.756
569.422	2201.252
569.550	2181.202
569.678	2203.412
569.806	2214.311
569.935	2228.454
570.063	2215.286
570.191	2238.000
570.319	2230.025
570.447	2235.966
570.575	2225.462
570.703	2231.471
570.831	2250.353
570.960	2245.067
571.088	2251.261
571.216	2227.092
571.344	2247.429
571.472	2248.697
571.600	2270.857
571.728	2249.672
571.856	2256.866
571.985	2263.571
572.113	2278.941
572.241	2271.563
572.369	2291.756
572.497	2261.546
572.625	2280.336
572.753	2266.689
572.881	2274.992
573.010	2285.815
573.138	2306.840
573.266	2293.109
573.394	2293.345
573.522	2302.387
573.650	2300.588
573.778	2289.042
573.906	2293.420
574.035	2304.277
574.163	2323.067
574.291	2323.546
574.419	2311.992
574.547	2314.933
574.675	2334.613
574.803	2313.513
574.931	2303.227
575.060	2327.370
575.188	2328.790
575.316	2327.437
575.444	2324.807
575.572	2330.000
575.700	2311.529
575.828	2326.933
575.956	2324.529
576.085	2318.017
576.213	2328.975
576.341	2315.445
576.469	2332.143
576.597	2308.538
576.725	2323.866
576.853	2319.471
576.981	2323.773
577.110	2322.445
577.238	2340.437
577.366	2317.916
577.494	2321.882
577.622	2317.857
577.750	2307.815
577.878	2326.378
578.006	2347.857
578.135	2326.966
578.263	2324.882
578.391	2345.672
578.519	2339.613
578.647	2362.328
578.775	2328.479
578.903	2321.807
579.031	2334.218
579.160	2330.387
579.288	2328.151
579.416	2318.445
579.544	2363.748
579.672	2328.613
579.800	2339.899
579.928	2313.076
580.056	2329.983
580.185	2336.160
580.313	2344.176
580.441	2358.202
580.569	2356.790
580.697	2330.176
580.825	2358.336
580.953	2385.899
581.081	2368.840
581.210	2380.000
581.338	2369.697
581.466	2383.168
581.594	2391.126
581.722	2400.697
581.850	2387.429
581.978	2389.008
582.106	2388.681
582.235	2399.832
582.363	2389.647
582.491	2414.445
582.619	2423.067
582.747	2423.655
582.875	2417.588
583.003	2431.958
583.131	2452.101
583.260	2461.227
583.388	2456.479
583.516	2483.311
583.644	2472.849
583.772	2477.882
583.900	2485.992
584.028	2494.261
584.156	2495.908
584.285	2516.866
584.413	2500.202
584.541	2533.555
584.669	2531.807
584.797	2541.815
584.925	2542.176
585.053	2552.168
585.181	2563.445
585.310	2571.849
585.438	2566.605
585.566	2559.050
585.694	2581.605
585.822	2582.588
585.950	2587.454
586.078	2597.664
586.206	2608.143
586.335	2604.815
586.463	2636.319
586.591	2654.235
586.719	2654.252
586.847	2650.714
586.975	2647.412
587.103	2646.017
587.231	2652.824
587.360	2655.479
587.488	2653.168
587.616	2652.882
587.744	2677.697
587.872	2666.765
588.000	2675.118
588.128	2676.319
588.256	2681.958
588.385	2676.891
588.513	2689.345
588.641	2689.815
588.769	2708.697
588.897	2692.782
589.025	2709.664
589.153	2682.622
589.281	2688.412
589.410	2706.269
589.538	2714.672
589.666	2733.193
589.794	2716.647
589.922	2704.017
590.050	2730.580
590.178	2700.950
590.306	2719.185
590.435	2743.899
590.563	2742.563
590.691	2716.420
590.819	2776.008
590.947	2763.193
591.075	2754.294
591.203	2767.597
591.331	2744.034
591.460	2735.857
591.588	2780.689
591.716	2764.798
591.844	2738.832
591.972	2789.933
592.100	2776.118
592.228	2768.840
592.356	2779.277
592.485	2774.118
592.613	2772.286
592.741	2820.185
592.869	2791.034
592.997	2779.126
593.125	2784.891
593.253	2827.345
593.381	2844.445
593.510	2823.857
593.638	2824.143
593.766	2823.420
593.894	2801.303
594.022	2837.328
594.150	2840.748
594.278	2864.319
594.406	2865.487
594.535	2852.681
594.663	2860.563
594.791	2861.908
594.919	2881.664
595.047	2893.218
595.175	2912.664
595.303	2893.050
595.431	2902.882
595.560	2957.429
595.688	2921.824
595.816	2972.571
595.944	2913.303
596.072	2934.908
596.200	2930.958
596.328	2937.529
596.456	2924.345
596.585	2938.546
596.713	2938.227
596.841	2973.420
596.969	2980.748
597.097	2992.235
597.225	2981.269
597.353	2989.487
597.481	3005.143
597.610	3006.160
597.738	3042.630
597.866	3017.151
597.994	3008.815
598.122	3060.748
598.250	3074.017
598.378	3035.160
598.506	3032.555
598.635	3076.899
598.763	3034.958
598.891	3101.798
599.019	3085.101
599.147	3118.445
599.275	3055.235
599.403	3134.185
599.531	3132.244
599.660	3121.748
599.788	3109.193
599.916	3132.504
600.044	3174.008
600.172	3134.504
600.300	3162.790
600.428	3141.126
600.556	3184.445
600.685	3245.739
600.813	3185.210
600.941	3201.471
601.069	3189.042
601.197	3210.059
601.325	3216.311
601.453	3195.798
601.581	3232.412
601.710	3244.462
601.838	3228.588
601.966	3333.042
602.094	3325.151
602.222	3302.571
602.350	3266.647
602.478	3290.084
602.606	3349.563
602.735	3273.731
602.863	3339.134
602.991	3347.975
603.119	3312.445
603.247	3330.084
603.375	3355.739
603.503	3380.437
603.631	3403.261
603.760	3397.000
603.888	3414.681
604.016	3399.723
604.144	3380.059
604.272	3429.151
604.400	3447.370
604.528	3459.891
604.656	3469.000
604.785	3467.092
604.913	3527.882
605.041	3448.924
605.169	3506.655
605.297	3495.479
605.425	3502.529
605.553	3532.210
605.681	3523.891
605.810	3576.706
605.938	3542.303
606.066	3523.798
606.194	3559.361
606.322	3556.714
606.450	3570.950
606.578	3562.866
606.706	3595.933
606.835	3601.328
606.963	3654.160
607.091	3640.067
607.219	3616.445
607.347	3598.815
607.475	3637.025
607.603	3612.202
607.731	3601.454
607.860	3636.714
607.988	3621.454
608.116	3678.134
608.244	3624.319
608.372	3673.597
608.500	3667.168
608.628	3637.496
608.756	3653.261
608.885	3720.269
609.013	3655.252
609.141	3648.336
609.269	3626.034
609.397	3651.496
609.525	3687.639
609.653	3709.521
609.781	3679.429
609.910	3686.992
610.038	3769.924
610.166	3697.782
610.294	3708.739
610.422	3701.176
610.550	3679.555
610.678	3682.277
610.806	3703.807
610.935	3683.000
611.063	3720.563
611.191	3744.504
611.319	3755.067
611.447	3723.008
611.575	3733.546
611.703	3711.076
611.831	3745.126
611.960	3729.958
612.088	3741.353
612.216	3737.983
612.344	3750.000
612.472	3757.319
612.600	3768.857
612.728	3779.412
612.856	3741.546
612.985	3766.025
613.113	3790.538
613.241	3787.941
613.369	3773.076
613.497	3784.983
613.625	3792.345
613.753	3802.361
613.881	3815.597
614.010	3793.924
614.138	3847.244
614.266	3830.832
614.394	3851.672
614.522	3845.429
614.650	3841.966
614.778	3844.370
614.906	3840.975
615.035	3871.218
615.163	3852.420
615.291	3921.681
615.419	3872.504
615.547	3859.756
615.675	3880.261
615.803	3938.798
615.931	3917.655
616.060	3883.319
616.188	3916.471
616.316	3939.076
616.444	3912.000
616.572	3950.580
616.700	3980.126
616.828	3941.311
616.956	4002.966
617.085	3975.857
617.213	3977.034
617.341	4028.050
617.469	4078.681
617.597	4014.109
617.725	4008.319
617.853	4013.529
617.981	4046.210
618.110	4090.126
618.238	4072.672
618.366	4069.874
618.494	4062.857
618.622	4084.832
618.750	4154.908
618.878	4136.353
619.006	4133.101
619.135	4175.345
619.263	4136.479
619.391	4134.025
619.519	4155.176
619.647	4223.538
619.775	4196.244
619.903	4237.218
620.031	4208.050
620.160	4222.210
620.288	4262.092
620.416	4241.580
620.544	4266.067
620.672	4284.193
620.800	4310.319
620.928	4306.319
621.056	4343.899
621.185	4319.218
621.313	4298.529
621.441	4347.328
621.569	4330.605
621.697	4378.546
621.825	4424.412
621.953	4365.454
622.081	4427.361
622.210	4372.235
622.338	4420.462
622.466	4463.395
622.594	4456.798
622.722	4438.824
622.850	4489.546
622.978	4519.471
623.106	4506.353
623.235	4520.639
623.363	4552.143
623.491	4502.034
623.619	4550.244
623.747	4520.672
623.875	4588.756
624.003	4535.697
624.131	4578.689
624.260	4582.697
624.388	4546.655
624.516	4582.126
624.644	4571.252
624.772	4579.496
624.900	4576.218
625.028	4614.924
625.156	4595.588
625.285	4629.739
625.413	4665.681
625.541	4633.916
625.669	4653.378
625.797	4679.429
625.925	4666.168
626.053	4681.504
626.181	4647.622
626.310	4752.025
626.438	4669.639
626.566	4677.613
626.694	4683.748
626.822	4691.664
626.950	4731.714
627.078	4683.714
627.206	4708.731
627.335	4707.429
627.463	4712.723
627.591	4720.353
627.719	4804.975
627.847	4743.723
627.975	4760.487
628.103	4798.462
628.231	4780.908
628.360	4784.370
628.488	4781.412
628.616	4783.235
628.744	4791.723
628.872	4808.798
629.000	4812.025
629.128	4839.437
629.256	4788.227
629.385	4828.218
629.513	4810.496
629.641	4841.286
629.769	4896.790
629.897	4873.782
630.025	4844.294
630.153	4910.445
630.281	4884.420
630.410	4895.706
630.538	4861.798
630.666	4899.555
630.794	4882.269
630.922	4905.269
631.050	4894.050
631.178	4906.311
631.306	4900.538
631.435	4915.084
631.563	4944.479
631.691	4962.798
631.819	5021.042
631.947	4922.966
632.075	4907.168
632.203	4980.857
632.331	4944.101
632.460	4963.462
632.588	4960.504
632.716	4964.849
632.844	5015.479
632.972	4916.126
633.100	4954.471
633.228	4982.588
633.356	4975.874
633.485	4989.000
633.613	5005.857
633.741	5013.714
633.869	5007.067
633.997	4998.227
634.125	5058.824
634.253	5013.613
634.381	5019.034
634.510	5052.311
634.638	5047.983
634.766	5097.756
634.894	5044.689
635.022	5029.655
635.150	5029.655
635.278	5053.773
635.406	5027.563
635.535	5051.756
635.663	5069.815
635.791	5015.655
635.919	5044.597
636.047	5048.521
636.175	5067.370
636.303	5050.958
636.431	5058.521
636.560	5099.244
636.688	5058.227
636.816	5085.319
636.944	5088.109
637.072	5113.950
637.200	5093.471
637.328	5103.084
637.456	5073.992
637.585	5061.277
637.713	5103.025
637.841	5098.210
637.969	5112.605
638.097	5105.815
638.225	5093.950
638.353	5113.975
638.481	5114.790
638.610	5122.975
638.738	5130.529
638.866	5142.479
638.994	5145.017
639.122	5114.798
639.250	5142.613
639.378	5183.739
639.506	5163.076
639.635	5176.118
639.763	5138.210
639.891	5183.824
640.019	5180.126
640.147	5237.504
640.275	5157.462
640.403	5174.151
640.531	5230.513
640.660	5216.311
640.788	5278.756
640.916	5236.403
641.044	5228.933
641.172	5211.000
641.300	5269.924
641.428	5224.101
641.556	5269.025
641.685	5290.227
641.813	5271.739
641.941	5288.504
642.069	5306.034
642.197	5326.756
642.325	5326.101
642.453	5294.126
642.581	5398.168
642.710	5291.874
642.838	5349.277
642.966	5333.588
643.094	5348.370
643.222	5338.042
643.350	5345.782
643.478	5402.059
643.606	5379.412
643.735	5343.529
643.863	5382.571
643.991	5394.697
644.119	5387.555
644.247	5385.109
644.375	5388.487
644.503	5424.950
644.631	5463.067
644.760	5450.874
644.888	5453.361
645.016	5459.185
645.144	5462.151
645.272	5415.597
645.400	5464.723
645.528	5497.429
645.656	5480.092
645.785	5491.731
645.913	5526.647
646.041	5504.672
646.169	5549.378
646.297	5483.899
646.425	5519.059
646.553	5496.975
646.681	5465.134
646.810	5499.672
646.938	5470.261
647.066	5447.588
647.194	5549.429
647.322	5486.916
647.450	5481.067
647.578	5498.370
647.706	5469.521
647.835	5467.849
647.963	5532.345
648.091	5433.429
648.219	5515.832
648.347	5525.286
648.475	5472.630
648.603	5488.866
648.731	5450.286
648.860	5456.521
648.988	5458.034
649.116	5449.429
649.244	5432.378
649.372	5465.101
649.500	5446.176
649.628	5480.891
649.756	5445.084
649.885	5427.899
650.013	5403.756
650.141	5391.807
650.269	5376.168
650.397	5389.445
650.525	5349.782
650.653	5409.529
650.781	5377.815
650.910	5344.966
651.038	5311.496
651.166	5316.076
651.294	5320.143
651.422	5301.664
651.550	5267.782
651.678	5308.378
651.806	5276.218
651.935	5268.118
652.063	5287.303
652.191	5269.017
652.319	5265.882
652.447	5270.588
652.575	5214.277
652.703	5266.319
652.831	5249.336
652.960	5224.748
653.088	5231.487
653.216	5223.437
653.344	5225.143
653.472	5204.504
653.600	5201.059
653.728	5197.580
653.856	5199.084
653.985	5172.992
654.113	5156.479
654.241	5173.185
654.369	5159.992
654.497	5186.580
654.625	5169.966
654.753	5149.882
654.881	5188.076
655.010	5228.866
655.138	5156.000
655.266	5143.328
655.394	5139.975
655.522	5191.580
655.650	5103.908
655.778	5185.370
655.906	5104.613
656.035	5080.261
656.163	5106.185
656.291	5086.143
656.419	5113.017
656.547	5095.664
656.675	5090.050
656.803	5110.269
656.931	5077.252
657.060	5098.655
657.188	5088.496
657.316	5080.227
657.444	5062.933
657.572	5076.714
657.700	5065.361
657.828	5039.832
657.956	5091.622
658.085	5143.227
658.213	5111.370
658.341	5096.328
658.469	5088.908
658.597	5139.261
658.725	5078.378
658.853	5050.042
658.981	5048.731
659.110	5110.261
659.238	5087.361
659.366	5067.756
659.494	5041.370
659.622	5017.773
659.750	5029.294
659.878	4999.529
660.006	5009.857
660.135	5002.622
660.263	5003.697
660.391	5099.941
660.519	5081.958
660.647	4982.874
660.775	5001.168
660.903	4963.630
661.031	4947.891
661.160	5002.471
661.288	4993.807
661.416	4990.462
661.544	4949.286
661.672	4978.916
661.800	4955.882
661.928	4953.580
662.056	4993.193
662.185	4905.076
662.313	4942.975
662.441	4984.706
662.569	4942.353
662.697	4903.756
662.825	4890.227
662.953	4901.025
663.081	4876.571
663.210	4904.286
663.338	4869.891
663.466	4878.739
663.594	4905.202
663.722	4884.101
663.850	4878.731
663.978	4859.269
664.106	4929.126
664.235	4832.025
664.363	4888.697
664.491	4883.681
664.619	4833.639
664.747	4812.941
664.875	4830.639
665.003	4842.798
665.131	4809.597
665.260	4858.244
665.388	4792.706
665.516	4785.151
665.644	4814.882
665.772	4803.176
665.900	4802.916
666.028	4774.059
666.156	4788.824
666.285	4773.664
666.413	4794.966
666.541	4787.790
666.669	4752.261
666.797	4740.176
666.925	4734.529
667.053	4808.143
667.181	4716.345
667.310	4747.950
667.438	4734.714
667.566	4765.143
667.694	4737.672
667.822	4727.815
667.950	4687.504
668.078	4699.429
668.206	4711.807
668.335	4647.143
668.463	4689.908
668.591	4681.244
668.719	4677.311
668.847	4668.773
668.975	4640.193
669.103	4658.429
669.231	4671.454
669.360	4601.227
669.488	4629.840
669.616	4623.218
669.744	4657.689
669.872	4608.252
670.000	4588.462
670.128	4573.042
670.256	4564.941
670.385	4599.479
670.513	4570.655
670.641	4613.798
670.769	4594.059
670.897	4543.807
671.025	4575.185
671.153	4541.966
671.281	4570.815
671.410	4585.630
671.538	4547.639
671.666	4559.992
671.794	4547.118
671.922	4520.857
672.050	4579.176
672.178	4475.479
672.306	4486.992
672.435	4515.546
672.563	4498.681
672.691	4524.185
672.819	4486.361
672.947	4456.748
673.075	4434.403
673.203	4435.815
673.331	4415.571
673.460	4418.798
673.588	4428.160
673.716	4453.403
673.844	4414.387
673.972	4393.345
674.100	4373.597
674.228	4346.689
674.356	4343.353
674.485	4364.555
674.613	4368.521
674.741	4335.202
674.869	4299.513
674.997	4344.176
675.125	4307.546
675.253	4267.487
675.381	4302.798
675.510	4269.975
675.638	4304.496
675.766	4240.697
675.894	4278.689
676.022	4233.277
676.150	4203.966
676.278	4234.210
676.406	4219.462
676.535	4240.882
676.663	4225.748
676.791	4170.908
676.919	4155.210
677.047	4123.706
677.175	4137.496
677.303	4217.403
677.431	4105.218
677.560	4091.706
677.688	4085.882
677.816	4123.403
677.944	4088.941
678.072	4032.916
678.200	4030.597
678.328	4032.134
678.456	4033.950
678.585	4007.000
678.713	4006.101
678.841	3985.891
678.969	3996.445
679.097	3985.597
679.225	3979.807
679.353	3946.639
679.481	3928.345
679.610	3910.294
679.738	3889.261
679.866	3930.261
679.994	3910.176
680.122	3909.387
680.250	3861.017
680.378	3887.924
680.506	3824.218
680.635	3848.496
680.763	3880.529
680.891	3839.639
681.019	3811.613
681.147	3861.067
681.275	3791.529
681.403	3782.891
681.531	3772.983
681.660	3785.622
681.788	3846.798
681.916	3718.429
682.044	3761.975
682.172	3739.176
682.300	3705.546
682.428	3693.622
682.556	3717.118
682.685	3701.143
682.813	3734.521
682.941	3685.714
683.069	3656.622
683.197	3681.227
683.325	3665.697
683.453	3675.067
683.581	3687.277
683.710	3639.580
683.838	3622.168
683.966	3640.521
684.094	3642.261
684.222	3630.496
684.350	3612.227
684.478	3582.664
684.606	3605.664
684.735	3593.454
684.863	3562.546
684.991	3619.017
685.119	3611.462
685.247	3641.916
685.375	3538.202
685.503	3569.210
685.631	3608.143
685.760	3555.613
685.888	3519.605
686.016	3546.126
686.144	3557.420
686.272	3531.244
686.400	3490.529
686.528	3480.613
686.656	3449.008
686.785	3467.076
686.913	3473.714
687.041	3449.622
687.169	3447.941
687.297	3493.202
687.425	3471.496
687.553	3445.748
687.681	3407.336
687.810	3440.303
687.938	3419.353
688.066	3407.504
688.194	3418.639
688.322	3437.882
688.450	3405.714
688.578	3393.924
688.706	3394.571
688.835	3429.084
688.963	3383.824
689.091	3399.092
689.219	3385.681
689.347	3358.504
689.475	3393.563
689.603	3382.571
689.731	3373.227
689.860	3351.134
689.988	3313.286
690.116	3328.866
690.244	3375.353
690.372	3291.235
690.500	3305.319
690.628	3332.924
690.756	3316.866
690.885	3272.546
691.013	3292.210
691.141	3279.613
691.269	3290.756
691.397	3236.193
691.525	3264.630
691.653	3261.000
691.781	3233.151
691.910	3258.555
692.038	3272.748
692.166	3212.992
692.294	3291.933
692.422	3220.134
692.550	3276.597
692.678	3211.756
692.806	3228.445
692.935	3188.756
693.063	3166.126
693.191	3196.824
693.319	3191.403
693.447	3156.336
693.575	3133.050
693.703	3201.992
693.831	3144.832
693.960	3124.546
694.088	3112.613
694.216	3120.151
694.344	3152.109
694.472	3099.975
694.600	3091.244
694.728	3096.647
694.856	3083.874
694.985	3061.739
695.113	3054.958
695.241	3064.538
695.369	3065.067
695.497	3056.672
695.625	3039.454
695.753	3009.294
695.881	3011.681
696.010	2997.109
696.138	3003.218
696.266	2976.294
696.394	2949.403
696.522	2938.176
696.650	2949.966
696.778	2960.983
696.906	2947.647
697.035	2918.538
697.163	2939.891
697.291	2915.025
697.419	2907.571
697.547	2911.832
697.675	2904.639
697.803	2884.697
697.931	2841.403
698.060	2851.185
698.188	2859.588
698.316	2856.151
698.444	2816.765
698.572	2827.605
698.700	2806.756
698.828	2790.588
698.956	2801.672
699.085	2828.168
699.213	2791.462
699.341	2751.916
699.469	2748.714
699.597	2755.790
699.725	2738.202
699.853	2732.790
699.981	2701.908
700.110	2704.782
700.238	2694.899
700.366	2686.521
700.494	2686.143
700.622	2658.143
700.750	2744.546
700.878	2756.924
701.006	2646.286
701.135	2644.882
701.263	2618.462
701.391	2605.395
701.519	2634.067
701.647	2609.782
701.775	2552.050
701.903	2605.160
702.031	2578.185
702.160	2569.891
702.288	2556.840
702.416	2570.739
702.544	2555.202
702.672	2535.908
702.800	2523.303
702.928	2557.639
703.056	2507.227
703.185	2530.874
703.313	2488.832
703.441	2494.941
703.569	2551.227
703.697	2476.580
703.825	2501.193
703.953	2485.958
704.081	2471.723
704.210	2477.311
704.338	2460.227
704.466	2430.983
704.594	2430.639
704.722	2439.983
704.850	2408.840
704.978	2417.924
705.106	2406.429
705.235	2391.597
705.363	2377.992
705.491	2391.286
705.619	2391.176
705.747	2362.630
705.875	2376.252
706.003	2346.605
706.131	2345.933
706.260	2321.412
706.388	2335.504
706.516	2309.924
706.644	2312.891
706.772	2306.899
706.900	2284.160
707.028	2286.025
707.156	2272.143
707.285	2288.521
707.413	2257.866
707.541	2242.655
707.669	2235.840
707.797	2249.101
707.925	2238.479
708.053	2225.412
708.181	2213.034
708.310	2212.294
708.438	2198.538
708.566	2191.487
708.694	2189.630
708.822	2196.782
708.950	2173.269
709.078	2147.067
709.206	2146.899
709.335	2134.067
709.463	2126.529
709.591	2124.857
709.719	2101.689
709.847	2102.588
709.975	2100.412
710.103	2079.218
710.231	2077.723
710.360	2051.118
710.488	2050.538
710.616	2046.916
710.744	2048.992
710.872	2046.790
711.000	2030.689
711.128	2016.941
711.256	2013.639
711.385	2007.210
711.513	1995.319
711.641	1991.756
711.769	1985.420
711.897	1980.445
712.025	1963.882
712.153	1949.924
712.281	1955.941
712.410	1943.950
712.538	1944.815
712.666	1918.462
712.794	1928.328
712.922	1911.824
713.050	1895.496
713.178	1906.235
713.306	1898.218
713.435	1888.840
713.563	1880.244
713.691	1880.664
713.819	1868.143
713.947	1860.840
714.075	1859.109
714.203	1853.319
714.331	1837.235
714.460	1836.807
714.588	1838.445
714.716	1824.059
714.844	1814.235
714.972	1809.496
715.100	1809.118
715.228	1797.580
715.356	1794.311
715.485	1788.563
715.613	1777.647
715.741	1770.555
715.869	1765.092
715.997	1746.672
716.125	1755.151
716.253	1756.538
716.381	1739.101
716.510	1751.521
716.638	1729.319
716.766	1722.933
716.894	1717.412
717.022	1705.336
717.150	1702.076
717.278	1688.210
717.406	1697.479
717.535	1691.235
717.663	1693.252
717.791	1692.588
717.919	1668.420
718.047	1668.277
718.175	1668.714
718.303	1662.487
718.431	1658.437
718.560	1654.244
718.688	1634.689
718.816	1637.639
718.944	1634.681
719.072	1642.378
719.200	1619.126
719.328	1605.092
719.456	1607.689
719.585	1601.126
719.713	1601.807
719.841	1595.672
719.969	1574.261
720.097	1572.311
720.225	1558.857
720.353	1561.882
720.481	1564.160
720.610	1553.261
720.738	1549.294
720.866	1549.723
720.994	1545.067
721.122	1546.160
721.250	1539.563
721.378	1509.496
721.506	1512.000
721.635	1505.370
721.763	1517.496
721.891	1519.605
722.019	1486.655
722.147	1484.706
722.275	1488.101
722.403	1471.134
722.531	1477.084
722.660	1476.689
722.788	1468.261
722.916	1458.798
723.044	1450.118
723.172	1452.958
723.300	1441.798
723.428	1445.765
723.556	1428.151
723.685	1431.563
723.813	1435.807
723.941	1407.353
724.069	1409.261
724.197	1401.874
724.325	1370.891
724.453	1381.084
724.581	1383.059
724.710	1369.202
724.838	1367.151
724.966	1346.151
725.094	1350.916
725.222	1346.311
725.350	1339.849
725.478	1335.092
725.606	1336.613
725.735	1318.118
725.863	1312.227
725.991	1307.613
726.119	1295.143
726.247	1300.084
726.375	1287.336
726.503	1289.168
726.631	1282.487
726.760	1269.437
726.888	1273.378
727.016	1274.269
727.144	1258.210
727.272	1253.017
727.400	1235.143
727.528	1232.311
727.656	1232.454
727.785	1223.622
727.913	1221.672
728.041	1201.050
728.169	1225.244
728.297	1197.924
728.425	1202.866
728.553	1196.647
728.681	1185.168
728.810	1178.454
728.938	1170.101
729.066	1162.916
729.194	1165.403
729.322	1155.790
729.450	1141.235
729.578	1153.605
729.706	1137.479
729.835	1148.731
729.963	1137.261
730.091	1128.664
730.219	1115.529
730.347	1119.731
730.475	1110.924
730.603	1109.118
730.731	1111.655
730.860	1089.639
730.988	1095.538
731.116	1090.630
731.244	1096.176
731.372	1079.487
731.500	1070.723
731.628	1068.454
731.756	1064.521
731.885	1050.429
732.013	1060.378
732.141	1050.353
732.269	1051.765
732.397	1041.832
732.525	1037.639
732.653	1036.328
732.781	1031.143
732.910	1031.588
733.038	1028.277
733.166	1020.714
733.294	1016.529
733.422	1013.605
733.550	1010.723
733.678	994.034
733.806	1001.210
733.935	1002.782
734.063	979.815
734.191	992.639
734.319	976.941
734.447	976.235
734.575	972.731
734.703	965.118
734.831	952.908
734.960	960.437
735.088	963.697
735.216	947.042
735.344	943.067
735.472	940.227
735.600	937.420
735.728	935.756
735.856	926.924
735.985	931.084
736.113	926.857
736.241	924.008
736.369	916.849
736.497	913.639
736.625	914.874
736.753	899.630
736.881	902.454
737.010	893.118
737.138	891.790
737.266	886.798
737.394	888.605
737.522	882.252
737.650	878.714
737.778	879.966
737.906	867.714
738.035	852.437
738.163	864.471
738.291	864.437
738.419	849.563
738.547	846.832
738.675	855.479
738.803	848.042
738.931	839.513
739.060	840.319
739.188	836.462
739.316	825.924
739.444	824.782
739.572	823.202
739.700	813.832
739.828	816.487
739.956	810.227
740.085	812.655
740.213	808.345
740.341	797.739
740.469	803.664
740.597	793.126
740.725	797.546
740.853	788.748
740.981	790.067
741.110	787.378
741.238	784.622
741.366	782.487
741.494	779.092
741.622	776.151
741.750	772.513
741.878	776.622
742.006	760.050
742.135	761.176
742.263	761.992
742.391	755.521
742.519	760.563
742.647	746.807
742.775	759.588
742.903	743.168
743.031	736.731
743.160	739.134
743.288	736.034
743.416	729.269
743.544	728.672
743.672	733.134
743.800	722.479
743.928	720.647
744.056	718.370
744.185	719.513
744.313	714.387
744.441	706.630
744.569	705.529
744.697	701.361
744.825	702.076
744.953	699.866
745.081	697.496
745.210	696.403
745.338	698.353
745.466	692.134
745.594	686.866
745.722	684.269
745.850	669.471
745.978	682.286
746.106	677.630
746.235	667.765
746.363	667.202
746.491	663.958
746.619	663.143
746.747	656.924
746.875	654.723
747.003	660.773
747.131	650.958
747.260	643.882
747.388	643.328
747.516	646.908
747.644	639.328
747.772	647.076
747.900	634.311
748.028	632.765
748.156	622.227
748.285	623.891
748.413	628.832
748.541	622.193
748.669	615.706
748.797	612.899
748.925	610.941
749.053	608.202
749.181	605.395
749.310	606.983
749.438	604.076
749.566	595.748
749.694	595.034
749.822	594.227
749.950	594.639
750.078	586.874
750.206	584.992
750.335	584.420
750.463	583.176
750.591	583.613
750.719	574.067
750.847	571.555
750.975	566.571
751.103	561.286
751.231	567.546
751.360	562.361
751.488	557.975
751.616	548.277
751.744	551.336
751.872	544.513
752.000	542.832
752.128	542.361
752.256	539.361
752.385	539.420
752.513	536.933
752.641	532.571
752.769	533.437
752.897	532.378
753.025	525.252
753.153	518.042
753.281	515.084
753.410	519.185
753.538	520.050
753.666	508.403
753.794	512.807
753.922	509.269
754.050	501.412
754.178	501.647
754.306	494.681
754.435	500.151
754.563	501.630
754.691	492.084
754.819	494.395
754.947	489.849
755.075	487.941
755.203	488.479
755.331	483.832
755.460	479.000
755.588	479.882
755.716	477.664
755.844	470.185
755.972	465.975
756.100	471.882
756.228	469.756
756.356	467.034
756.485	469.739
756.613	462.655
756.741	461.597
756.869	460.538
756.997	456.101
757.125	451.227
757.253	454.613
757.381	450.067
757.510	446.622
757.638	441.395
757.766	447.933
757.894	438.563
758.022	441.445
758.150	442.319
758.278	439.933
758.406	430.059
758.535	435.294
758.663	432.731
758.791	431.697
758.919	429.092
759.047	427.992
759.175	424.773
759.303	420.832
759.431	421.403
759.560	420.336
759.688	420.042
759.816	419.210
759.944	414.143
760.072	409.908
760.200	405.807
760.328	410.723
760.456	407.773
760.585	401.143
760.713	403.916
760.841	400.353
760.969	399.126
761.097	397.521
761.225	398.941
761.353	399.613
761.481	394.437
761.610	392.706
761.738	390.294
761.866	384.361
761.994	388.336
762.122	384.445
762.250	379.630
762.378	381.513
762.506	382.462
762.635	377.874
762.763	380.462
762.891	381.311
763.019	378.227
763.147	374.176
763.275	370.891
763.403	374.857
763.531	371.571
763.660	365.218
763.788	367.395
763.916	367.983
764.044	363.807
764.172	359.487
764.300	359.403
764.428	362.378
764.556	354.143
764.685	356.328
764.813	355.092
764.941	352.857
765.069	350.782
765.197	348.916
765.325	340.832
765.453	342.244
765.581	348.563
765.710	342.462
765.838	344.294
765.966	344.445
766.094	337.555
766.222	339.008
766.350	339.546
766.478	338.950
766.606	336.218
766.735	334.513
766.863	330.513
766.991	329.176
767.119	332.664
767.247	326.908
767.375	323.790
767.503	323.084
767.631	326.504
767.760	325.294
767.888	319.950
768.016	323.798
768.144	316.084
768.272	319.252
768.400	319.689
768.528	318.798
768.656	311.613
768.785	313.370
768.913	312.630
769.041	313.050
769.169	307.941
769.297	310.042
769.425	304.126
769.553	310.958
769.681	308.252
769.810	306.336
769.938	302.891
770.066	302.412
770.194	301.496
770.322	305.193
770.450	299.697
770.578	298.311
770.706	296.824
770.835	293.076
770.963	296.992
771.091	295.261
771.219	291.353
771.347	292.882
771.475	290.622
771.603	291.891
771.731	291.798
771.860	287.370
771.988	283.059
772.116	287.882
772.244	286.630
772.372	279.034
772.500	283.857
772.628	282.353
772.756	280.571
772.885	283.555
773.013	278.933
773.141	273.563
773.269	278.798
773.397	276.840
773.525	272.950
773.653	275.160
773.781	273.286
773.910	271.983
774.038	268.210
774.166	267.487
774.294	270.185
774.422	265.706
774.550	268.933
774.678	265.454
774.806	262.294
774.935	265.092
775.063	262.681
775.191	260.218
775.319	263.790
775.447	259.412
775.575	257.790
775.703	257.798
775.831	254.462
775.960	253.815
776.088	258.588
776.216	252.605
776.344	254.983
776.472	254.387
776.600	251.445
776.728	249.622
776.856	250.966
776.985	248.176
777.113	251.403
777.241	245.437
777.369	246.076
777.497	243.538
777.625	247.084
777.753	244.597
777.881	244.218
778.010	240.261
778.138	240.429
778.266	237.361
778.394	238.622
778.522	240.588
778.650	236.218
778.778	238.555
778.906	239.840
779.035	239.134
779.163	231.202
779.291	230.210
779.419	235.891
779.547	231.924
779.675	230.034
779.803	228.277
779.931	229.966
780.060	229.597
780.188	226.773
780.316	227.202
780.444	226.294
780.572	225.597
780.700	226.916
780.828	219.916
780.956	222.798
781.085	226.185
781.213	224.008
781.341	223.832
781.469	218.908
781.597	218.630
781.725	218.966
781.853	220.723
781.981	217.160
782.110	217.765
782.238	216.025
782.366	216.034
782.494	215.731
782.622	214.176
782.750	212.840
782.878	211.185
783.006	212.739
783.135	212.059
783.263	210.445
783.391	209.866
783.519	210.681
783.647	207.218
783.775	206.681
783.903	208.933
784.031	205.899
784.160	205.672
784.288	203.597
784.416	203.345
784.544	202.605
784.672	202.739
784.800	201.454
784.928	200.782
785.056	200.387
785.185	199.487
785.313	198.076
785.441	199.832
785.569	199.504
785.697	197.353
785.825	195.756
785.953	193.479
786.081	194.782
786.210	192.193
786.338	194.840
786.466	191.630
786.594	190.328
786.722	189.546
786.850	188.202
786.978	187.832
787.106	189.622
787.235	188.605
787.363	188.353
787.491	186.588
787.619	188.076
787.747	188.387
787.875	185.782
788.003	185.529
788.131	182.655
788.260	182.908
788.388	181.714
788.516	181.891
788.644	185.311
788.772	180.613
788.900	180.908
789.028	177.908
789.156	182.168
789.285	178.126
789.413	179.555
789.541	178.269
789.669	177.882
789.797	177.697
789.925	176.328
790.053	176.924
790.181	176.798
790.310	174.370
790.438	174.176
790.566	176.563
790.694	175.723
790.822	172.143
790.950	172.613
791.078	173.487
791.206	171.966
791.335	171.412
791.463	168.252
791.591	168.739
791.719	167.950
791.847	170.983
791.975	167.950
792.103	166.882
792.231	170.109
792.360	168.134
792.488	166.504
792.616	166.773
792.744	163.790
792.872	167.765
793.000	163.798
793.128	164.765
793.256	164.412
793.385	161.580
793.513	163.807
793.641	164.000
793.769	162.252
793.897	163.311
794.025	160.521
794.153	159.782
794.281	161.563
794.410	160.782
794.538	161.639
794.666	159.555
794.794	157.840
794.922	160.017
795.050	157.992
795.178	160.017
795.306	152.748
795.435	156.588
795.563	156.193
795.691	154.739
795.819	154.597
795.947	156.319
796.075	155.109
796.203	155.193
796.331	151.067
796.460	153.370
796.588	155.773
796.716	152.092
796.844	153.513
796.972	153.588
797.100	148.950
797.228	152.143
797.356	153.235
797.485	151.412
797.613	150.109
797.741	150.353
797.869	150.008
797.997	150.874
798.125	148.866
798.253	149.639
798.381	149.429
798.510	148.227
798.638	146.639
798.766	146.345
798.894	147.571
799.022	146.950
799.150	146.227
799.278	145.882
799.406	147.311
799.535	148.067
799.663	148.109
799.791	145.571
799.919	145.227
800.047	144.412
800.175	144.513
800.303	143.521
800.431	143.244
800.560	143.563
800.688	143.437
800.816	141.588
800.944	141.941
801.072	144.084
801.200	143.462
801.328	141.664
801.456	141.311
801.585	143.160
801.713	141.950
801.841	140.916
801.969	141.076
802.097	140.756
802.225	140.303
802.353	139.899
802.481	140.672
802.610	138.933
802.738	140.546
802.866	139.487
802.994	138.975
803.122	138.328
803.250	140.571
803.378	137.790
803.506	137.630
803.635	137.916
803.763	138.496
803.891	136.975
804.019	137.454
804.147	139.261
804.275	135.840
804.403	135.563
804.531	135.748
804.660	134.773
804.788	133.807
804.916	134.950
805.044	134.958
805.172	134.882
805.300	134.773
805.428	134.067
805.556	134.798
805.685	134.933
805.813	134.756
805.941	132.563
806.069	133.824
806.197	132.311
806.325	131.773
806.453	133.790
806.581	132.630
806.710	132.689
806.838	130.647
806.966	132.244
807.094	131.840
807.222	133.336
807.350	131.176
807.478	130.664
807.606	130.529
807.735	129.185
807.863	131.034
807.991	130.681
808.119	129.975
808.247	131.076
808.375	129.664
808.503	130.084
808.631	129.126
808.760	129.303
808.888	128.084
809.016	130.361
809.144	130.538
809.272	129.496
809.400	129.714
809.528	128.277
809.656	128.361
809.785	127.950
809.913	127.269
810.041	127.126
810.169	128.193
810.297	127.176
810.425	127.403
810.553	123.807
810.681	127.723
810.810	126.908
810.938	128.311
811.066	124.966
811.194	125.076
811.322	126.597
811.450	126.126
811.578	126.303
811.706	124.782
811.835	124.311
811.963	124.546
812.091	127.345
812.219	124.748
812.347	123.092
812.475	123.235
812.603	125.353
812.731	122.328
812.860	124.639
812.988	124.756
813.116	122.832
813.244	124.345
813.372	123.176
813.500	125.067
813.628	125.042
813.756	121.361
813.885	123.916
814.013	122.723
814.141	124.496
814.269	123.084
814.397	123.269
814.525	121.908
814.653	123.227
814.781	122.176
814.910	123.252
815.038	122.975
815.166	124.454
815.294	120.571
815.422	123.000
815.550	121.840
815.678	121.118
815.806	122.437
815.935	121.151
816.063	121.361
816.191	120.815
816.319	120.504
816.447	120.395
816.575	122.487
816.703	119.765
816.831	122.866
816.960	122.983
817.088	121.143
817.216	118.899
817.344	121.134
817.472	119.916
817.600	119.571
817.728	119.059
817.856	120.218
817.985	119.513
818.113	118.210
818.241	119.034
818.369	117.084
818.497	119.311
818.625	118.345
818.753	118.882
818.881	119.908
819.010	117.723
819.138	118.345
819.266	118.319
819.394	117.370
819.522	116.210
819.650	119.067
819.778	117.916
819.906	117.714
820.035	116.916
820.163	118.084
820.291	115.966
820.419	115.613
820.547	118.630
820.675	115.345
820.803	116.361
820.931	116.126
821.060	114.168
821.188	116.605
821.316	116.790
821.444	116.076
821.572	116.134
821.700	116.025
821.828	116.336
821.956	117.471
822.085	116.311
822.213	116.866
822.341	116.059
822.469	114.563
822.597	115.034
822.725	115.983
822.853	114.546
822.981	115.017
823.110	115.697
823.238	112.966
823.366	116.143
823.494	114.034
823.622	114.697
823.750	114.252
823.878	113.235
824.006	115.538
824.135	115.151
824.263	115.840
824.391	115.067
824.519	114.681
824.647	114.874
824.775	114.672
824.903	115.647
825.031	115.849
825.160	113.840
825.288	113.630
825.416	115.227
825.544	113.908
825.672	114.891
825.800	114.151
825.928	114.723
826.056	113.773
826.185	113.034
826.313	114.437
826.441	112.723
826.569	113.605
826.697	114.176
826.825	113.546
826.953	114.882
827.081	111.387
827.210	112.319
827.338	112.286
827.466	112.118
827.594	113.370
827.722	113.639
827.850	111.899
827.978	111.924
828.106	113.084
828.235	114.378
828.363	112.059
828.491	111.874
828.619	111.655
828.747	114.008
828.875	113.042
829.003	113.303
829.131	114.218
829.260	112.941
829.388	112.429
829.516	112.378
829.644	112.353
829.772	112.126
829.900	112.252
830.028	111.857
830.156	112.034
830.285	112.210
830.413	111.134
830.541	110.672
830.669	110.983
830.797	111.580
830.925	112.008
831.053	110.261
831.181	111.143
831.310	111.496
831.438	112.118
831.566	111.933
831.694	111.076
831.822	109.874
831.950	111.126
832.078	111.395
832.206	110.311
832.335	110.504
832.463	110.857
832.591	110.092
832.719	110.504
832.847	110.857
832.975	111.109
833.103	110.950
833.231	109.588
833.360	110.429
833.488	110.235
833.616	109.521
833.744	109.353
833.872	110.798
834.000	111.168
834.128	111.479
834.256	111.059
834.385	109.966
834.513	110.840
834.641	108.454
834.769	108.723
834.897	111.261
835.025	108.933
835.153	107.958
835.281	110.025
835.410	109.950
835.538	109.731
835.666	110.286
835.794	109.731
835.922	109.807
836.050	109.034
836.178	110.244
836.306	109.387
836.435	110.471
836.563	109.336
836.691	108.798
836.819	110.908
836.947	108.437
837.075	108.950
837.203	108.563
837.331	109.261
837.460	109.723
837.588	110.118
837.716	109.160
837.844	108.958
837.972	109.160
838.100	109.059
838.228	109.168
838.356	108.487
838.485	106.395
838.613	108.908
838.741	108.672
838.869	108.714
838.997	109.345
839.125	107.454
839.253	107.160
839.381	109.025
839.510	109.076
839.638	108.840
839.766	108.697
839.894	108.092
840.022	108.773
840.150	109.042
840.278	107.462
840.406	108.639
840.535	109.714
840.663	108.017
840.791	107.193
840.919	108.235
841.047	107.378
841.175	108.025
841.303	108.118
841.431	108.429
841.560	108.504
841.688	107.832
841.816	107.714
841.944	107.697
842.072	107.697
842.200	108.076
842.328	108.655
842.456	108.067
842.585	108.950
842.713	107.983
842.841	108.479
842.969	108.647
843.097	109.126
843.225	108.655
843.353	107.992
843.481	106.664
843.610	107.487
843.738	108.084
843.866	107.655
