70-110-unpol_at_679.99nm_cut_at_1283.50Y_01.dat
24.01.2024
11:32:40
cut middle at Y: 1283.50
top cursor: 1343 down cursor: 1224 mean of: 119 lines , 2560 datapoints
wavelength(nm)	intensity[arb. units]
515.994	1407.479
516.122	1330.513
516.250	1316.445
516.378	1307.092
516.506	1301.756
516.635	1314.513
516.763	1321.748
516.891	1332.815
517.019	1328.126
517.147	1325.597
517.275	1332.529
517.403	1336.908
517.531	1323.899
517.660	1318.622
517.788	1327.336
517.916	1339.681
518.044	1334.529
518.172	1332.899
518.300	1336.815
518.428	1330.193
518.556	1344.076
518.685	1341.613
518.813	1341.697
518.941	1350.034
519.069	1346.513
519.197	1338.244
519.325	1364.739
519.453	1344.176
519.581	1365.765
519.710	1352.286
519.838	1369.109
519.966	1364.832
520.094	1372.462
520.222	1365.748
520.350	1389.143
520.478	1382.824
520.606	1388.084
520.735	1371.412
520.863	1395.000
520.991	1407.076
521.119	1393.840
521.247	1405.723
521.375	1414.126
521.503	1420.160
521.631	1421.210
521.760	1422.092
521.888	1421.168
522.016	1422.723
522.144	1431.849
522.272	1443.782
522.400	1440.353
522.528	1448.782
522.656	1437.807
522.785	1450.866
522.913	1454.924
523.041	1450.017
523.169	1443.118
523.297	1454.647
523.425	1459.202
523.553	1452.218
523.681	1454.193
523.810	1459.782
523.938	1470.731
524.066	1458.899
524.194	1466.681
524.322	1468.496
524.450	1468.731
524.578	1466.042
524.706	1476.588
524.835	1461.168
524.963	1474.882
525.091	1462.597
525.219	1467.462
525.347	1453.328
525.475	1462.454
525.603	1473.134
525.731	1473.857
525.860	1474.807
525.988	1460.655
526.116	1472.227
526.244	1490.151
526.372	1462.000
526.500	1472.151
526.628	1490.916
526.756	1471.563
526.885	1474.185
527.013	1473.521
527.141	1478.420
527.269	1480.454
527.397	1487.403
527.525	1486.966
527.653	1467.017
527.781	1481.445
527.910	1500.899
528.038	1489.874
528.166	1500.345
528.294	1487.151
528.422	1494.941
528.550	1499.042
528.678	1500.370
528.806	1502.555
528.935	1513.824
529.063	1497.597
529.191	1513.370
529.319	1509.857
529.447	1516.639
529.575	1525.815
529.703	1522.689
529.831	1531.092
529.960	1528.487
530.088	1535.277
530.216	1542.723
530.344	1535.815
530.472	1537.496
530.600	1541.933
530.728	1537.445
530.856	1544.261
530.985	1538.630
531.113	1530.277
531.241	1535.916
531.369	1547.739
531.497	1547.319
531.625	1542.378
531.753	1549.294
531.881	1555.664
532.010	1546.378
532.138	1549.588
532.266	1532.563
532.394	1546.605
532.522	1531.378
532.650	1546.605
532.778	1542.815
532.906	1529.277
533.035	1542.176
533.163	1538.815
533.291	1538.084
533.419	1531.613
533.547	1526.126
533.675	1534.891
533.803	1524.420
533.931	1530.160
534.060	1539.731
534.188	1538.395
534.316	1542.487
534.444	1523.714
534.572	1534.378
534.700	1539.050
534.828	1536.034
534.956	1555.202
535.085	1540.008
535.213	1560.605
535.341	1559.294
535.469	1550.487
535.597	1563.521
535.725	1567.261
535.853	1569.235
535.981	1560.210
536.110	1573.193
536.238	1588.672
536.366	1587.235
536.494	1583.992
536.622	1608.185
536.750	1592.378
536.878	1596.580
537.006	1623.513
537.135	1617.059
537.263	1618.126
537.391	1616.782
537.519	1616.008
537.647	1621.235
537.775	1620.143
537.903	1633.513
538.031	1628.899
538.160	1630.916
538.288	1646.353
538.416	1643.891
538.544	1639.496
538.672	1645.101
538.800	1646.261
538.928	1647.605
539.056	1665.361
539.185	1668.815
539.313	1641.908
539.441	1658.975
539.569	1671.941
539.697	1659.387
539.825	1661.017
539.953	1675.840
540.081	1651.000
540.210	1664.983
540.338	1661.034
540.466	1658.748
540.594	1666.714
540.722	1657.176
540.850	1678.126
540.978	1667.244
541.106	1666.235
541.235	1673.706
541.363	1667.706
541.491	1668.345
541.619	1660.597
541.747	1663.361
541.875	1664.840
542.003	1670.378
542.131	1675.513
542.260	1679.824
542.388	1680.084
542.516	1677.899
542.644	1666.193
542.772	1672.025
542.900	1671.723
543.028	1677.756
543.156	1680.303
543.285	1678.941
543.413	1684.874
543.541	1686.185
543.669	1685.832
543.797	1679.370
543.925	1685.370
544.053	1688.756
544.181	1694.487
544.310	1691.773
544.438	1689.042
544.566	1693.387
544.694	1699.462
544.822	1696.336
544.950	1693.765
545.078	1687.950
545.206	1686.697
545.335	1701.555
545.463	1687.218
545.591	1692.908
545.719	1705.815
545.847	1703.681
545.975	1701.370
546.103	1693.328
546.231	1705.950
546.360	1695.882
546.488	1710.664
546.616	1704.504
546.744	1719.857
546.872	1707.277
547.000	1709.739
547.128	1705.748
547.256	1715.782
547.385	1698.941
547.513	1704.588
547.641	1710.387
547.769	1719.731
547.897	1720.471
548.025	1717.824
548.153	1726.756
548.281	1711.882
548.410	1721.227
548.538	1729.739
548.666	1720.227
548.794	1710.807
548.922	1710.866
549.050	1726.235
549.178	1724.496
549.306	1728.588
549.435	1724.286
549.563	1715.143
549.691	1729.681
549.819	1737.840
549.947	1737.235
550.075	1729.672
550.203	1733.975
550.331	1728.328
550.460	1726.412
550.588	1710.807
550.716	1741.681
550.844	1733.059
550.972	1718.739
551.100	1727.294
551.228	1731.555
551.356	1723.109
551.485	1720.059
551.613	1704.916
551.741	1700.311
551.869	1711.639
551.997	1707.983
552.125	1710.857
552.253	1710.252
552.381	1690.748
552.510	1702.294
552.638	1698.496
552.766	1709.622
552.894	1695.723
553.022	1693.059
553.150	1686.303
553.278	1689.849
553.406	1692.210
553.535	1687.840
553.663	1681.387
553.791	1684.345
553.919	1693.571
554.047	1694.630
554.175	1688.395
554.303	1671.202
554.431	1678.361
554.560	1688.487
554.688	1697.857
554.816	1681.916
554.944	1690.429
555.072	1686.101
555.200	1687.630
555.328	1679.950
555.456	1689.025
555.585	1692.664
555.713	1686.958
555.841	1696.580
555.969	1685.336
556.097	1697.975
556.225	1695.546
556.353	1705.067
556.481	1700.454
556.610	1716.345
556.738	1713.151
556.866	1717.025
556.994	1705.563
557.122	1719.697
557.250	1706.126
557.378	1716.462
557.506	1728.874
557.635	1725.546
557.763	1718.210
557.891	1736.025
558.019	1729.462
558.147	1726.832
558.275	1741.328
558.403	1743.756
558.531	1735.689
558.660	1741.479
558.788	1735.244
558.916	1742.454
559.044	1722.882
559.172	1733.168
559.300	1759.143
559.428	1743.429
559.556	1765.319
559.685	1747.924
559.813	1744.286
559.941	1759.538
560.069	1750.042
560.197	1751.244
560.325	1766.395
560.453	1758.807
560.581	1756.437
560.710	1755.555
560.838	1745.924
560.966	1756.790
561.094	1766.689
561.222	1754.395
561.350	1763.471
561.478	1741.664
561.606	1764.563
561.735	1739.034
561.863	1750.521
561.991	1741.429
562.119	1745.681
562.247	1738.387
562.375	1748.378
562.503	1741.437
562.631	1741.118
562.760	1746.387
562.888	1730.429
563.016	1733.294
563.144	1750.773
563.272	1739.487
563.400	1731.555
563.528	1725.403
563.656	1751.622
563.785	1743.891
563.913	1744.580
564.041	1723.185
564.169	1735.891
564.297	1735.092
564.425	1722.151
564.553	1759.655
564.681	1754.773
564.810	1735.193
564.938	1752.412
565.066	1740.689
565.194	1755.261
565.322	1754.605
565.450	1757.454
565.578	1772.378
565.706	1753.748
565.835	1758.017
565.963	1763.479
566.091	1754.025
566.219	1774.008
566.347	1778.563
566.475	1764.513
566.603	1764.672
566.731	1779.790
566.860	1782.118
566.988	1777.849
567.116	1804.882
567.244	1794.924
567.372	1795.899
567.500	1804.429
567.628	1790.605
567.756	1802.714
567.885	1815.630
568.013	1813.731
568.141	1823.202
568.269	1815.235
568.397	1810.395
568.525	1819.050
568.653	1838.395
568.781	1828.782
568.910	1859.571
569.038	1844.126
569.166	1846.143
569.294	1846.185
569.422	1849.151
569.550	1839.933
569.678	1857.832
569.806	1864.311
569.935	1877.025
570.063	1885.622
570.191	1873.664
570.319	1883.345
570.447	1876.950
570.575	1872.025
570.703	1902.924
570.831	1892.807
570.960	1893.664
571.088	1901.269
571.216	1903.168
571.344	1904.303
571.472	1901.832
571.600	1920.303
571.728	1911.420
571.856	1910.336
571.985	1923.454
572.113	1924.983
572.241	1920.765
572.369	1941.891
572.497	1929.655
572.625	1944.218
572.753	1925.076
572.881	1940.538
573.010	1938.034
573.138	1963.672
573.266	1946.538
573.394	1960.756
573.522	1962.840
573.650	1951.706
573.778	1959.101
573.906	1950.126
574.035	1970.807
574.163	1969.176
574.291	1966.176
574.419	1965.151
574.547	1972.210
574.675	1976.782
574.803	1983.168
574.931	1956.840
575.060	1984.244
575.188	1979.672
575.316	1978.538
575.444	1972.647
575.572	1980.924
575.700	1968.874
575.828	1981.958
575.956	1986.496
576.085	1974.336
576.213	1995.353
576.341	1983.891
576.469	1991.092
576.597	1979.429
576.725	1979.630
576.853	1974.832
576.981	1983.731
577.110	1990.168
577.238	2020.773
577.366	1993.496
577.494	1977.723
577.622	1982.395
577.750	1989.143
577.878	1987.840
578.006	1997.950
578.135	1992.420
578.263	1983.874
578.391	2016.235
578.519	2002.782
578.647	2008.748
578.775	1986.042
578.903	1981.882
579.031	2009.933
579.160	2006.092
579.288	2000.798
579.416	1996.857
579.544	2014.824
579.672	2007.639
579.800	2014.899
579.928	1994.571
580.056	1996.387
580.185	2016.328
580.313	2026.227
580.441	2036.655
580.569	2012.513
580.697	2018.294
580.825	2027.059
580.953	2040.277
581.081	2041.034
581.210	2035.345
581.338	2046.303
581.466	2048.050
581.594	2064.891
581.722	2048.210
581.850	2040.992
581.978	2061.891
582.106	2067.546
582.235	2082.790
582.363	2066.017
582.491	2075.605
582.619	2079.647
582.747	2098.126
582.875	2091.798
583.003	2100.714
583.131	2113.941
583.260	2115.689
583.388	2122.319
583.516	2142.227
583.644	2121.899
583.772	2138.597
583.900	2156.899
584.028	2165.908
584.156	2155.412
584.285	2172.866
584.413	2164.756
584.541	2199.109
584.669	2187.176
584.797	2199.008
584.925	2194.647
585.053	2212.580
585.181	2212.832
585.310	2220.008
585.438	2223.824
585.566	2228.218
585.694	2251.756
585.822	2267.866
585.950	2249.941
586.078	2262.008
586.206	2266.429
586.335	2286.370
586.463	2276.151
586.591	2296.412
586.719	2285.319
586.847	2299.303
586.975	2301.244
587.103	2300.370
587.231	2299.664
587.360	2311.891
587.488	2331.857
587.616	2315.933
587.744	2328.277
587.872	2315.941
588.000	2341.151
588.128	2340.933
588.256	2347.471
588.385	2327.370
588.513	2342.059
588.641	2345.622
588.769	2370.101
588.897	2350.067
589.025	2362.235
589.153	2351.210
589.281	2360.034
589.410	2375.622
589.538	2360.866
589.666	2381.269
589.794	2382.597
589.922	2384.252
590.050	2404.286
590.178	2371.244
590.306	2379.017
590.435	2405.563
590.563	2378.664
590.691	2406.739
590.819	2386.630
590.947	2431.118
591.075	2413.160
591.203	2397.420
591.331	2406.134
591.460	2417.345
591.588	2412.202
591.716	2431.815
591.844	2425.916
591.972	2441.874
592.100	2427.403
592.228	2430.462
592.356	2448.361
592.485	2435.630
592.613	2442.908
592.741	2467.168
592.869	2455.950
592.997	2479.899
593.125	2461.471
593.253	2484.118
593.381	2485.008
593.510	2485.311
593.638	2478.008
593.766	2493.462
593.894	2494.824
594.022	2490.008
594.150	2503.555
594.278	2528.193
594.406	2505.916
594.535	2524.387
594.663	2536.563
594.791	2536.521
594.919	2541.941
595.047	2559.202
595.175	2555.067
595.303	2557.723
595.431	2566.092
595.560	2590.185
595.688	2590.672
595.816	2590.857
595.944	2594.261
596.072	2598.126
596.200	2595.613
596.328	2611.403
596.456	2584.933
596.585	2608.445
596.713	2619.261
596.841	2624.429
596.969	2626.311
597.097	2650.580
597.225	2639.118
597.353	2662.084
597.481	2670.807
597.610	2681.782
597.738	2680.857
597.866	2676.000
597.994	2688.832
598.122	2710.168
598.250	2708.403
598.378	2694.395
598.506	2709.336
598.635	2711.370
598.763	2731.681
598.891	2749.681
599.019	2746.454
599.147	2754.151
599.275	2738.824
599.403	2765.025
599.531	2762.739
599.660	2767.815
599.788	2769.714
599.916	2781.118
600.044	2818.034
600.172	2775.891
600.300	2793.084
600.428	2795.891
600.556	2808.303
600.685	2868.000
600.813	2810.286
600.941	2861.824
601.069	2861.655
601.197	2855.311
601.325	2858.000
601.453	2856.227
601.581	2871.605
601.710	2886.824
601.838	2904.782
601.966	2970.807
602.094	2940.798
602.222	2927.303
602.350	2893.143
602.478	2930.891
602.606	2979.176
602.735	2914.412
602.863	2983.622
602.991	2987.655
603.119	2946.731
603.247	2965.168
603.375	2984.101
603.503	3012.403
603.631	3028.050
603.760	3033.765
603.888	3051.983
604.016	3039.118
604.144	3030.017
604.272	3072.025
604.400	3081.328
604.528	3073.588
604.656	3097.521
604.785	3121.050
604.913	3170.235
605.041	3095.706
605.169	3134.479
605.297	3126.176
605.425	3124.420
605.553	3157.412
605.681	3154.202
605.810	3183.916
605.938	3182.303
606.066	3172.706
606.194	3216.807
606.322	3196.622
606.450	3209.697
606.578	3204.941
606.706	3234.538
606.835	3227.689
606.963	3291.513
607.091	3282.261
607.219	3247.513
607.347	3246.714
607.475	3297.840
607.603	3256.168
607.731	3249.756
607.860	3277.588
607.988	3281.849
608.116	3303.420
608.244	3280.134
608.372	3343.529
608.500	3314.639
608.628	3276.739
608.756	3288.723
608.885	3354.227
609.013	3289.866
609.141	3296.840
609.269	3271.277
609.397	3307.345
609.525	3327.521
609.653	3352.176
609.781	3308.084
609.910	3338.731
610.038	3415.202
610.166	3345.773
610.294	3334.210
610.422	3339.429
610.550	3329.756
610.678	3347.361
610.806	3345.395
610.935	3345.731
611.063	3363.992
611.191	3380.252
611.319	3375.176
611.447	3357.874
611.575	3340.966
611.703	3370.160
611.831	3401.361
611.960	3384.521
612.088	3401.370
612.216	3378.555
612.344	3399.420
612.472	3401.689
612.600	3401.437
612.728	3403.286
612.856	3383.445
612.985	3399.000
613.113	3435.160
613.241	3440.176
613.369	3407.580
613.497	3425.437
613.625	3461.723
613.753	3446.924
613.881	3457.899
614.010	3409.941
614.138	3478.798
614.266	3455.319
614.394	3488.866
614.522	3480.345
614.650	3470.471
614.778	3493.025
614.906	3478.025
615.035	3519.076
615.163	3489.924
615.291	3551.773
615.419	3513.412
615.547	3500.084
615.675	3521.790
615.803	3570.319
615.931	3543.773
616.060	3527.563
616.188	3558.563
616.316	3561.521
616.444	3558.361
616.572	3593.655
616.700	3618.983
616.828	3590.916
616.956	3627.227
617.085	3607.529
617.213	3622.748
617.341	3644.580
617.469	3709.454
617.597	3634.319
617.725	3634.151
617.853	3649.387
617.981	3671.160
618.110	3722.151
618.238	3708.143
618.366	3692.664
618.494	3696.681
618.622	3710.185
618.750	3786.756
618.878	3767.588
619.006	3747.975
619.135	3803.042
619.263	3770.866
619.391	3767.420
619.519	3794.403
619.647	3851.353
619.775	3815.571
619.903	3838.118
620.031	3825.546
620.160	3841.017
620.288	3884.765
620.416	3881.328
620.544	3875.941
620.672	3883.513
620.800	3942.588
620.928	3934.370
621.056	3973.437
621.185	3955.303
621.313	3922.168
621.441	3966.193
621.569	3976.160
621.697	3978.160
621.825	4009.706
621.953	3990.958
622.081	4030.008
622.210	4003.168
622.338	4047.471
622.466	4046.370
622.594	4073.143
622.722	4027.412
622.850	4100.303
622.978	4112.084
623.106	4117.059
623.235	4109.546
623.363	4134.840
623.491	4117.429
623.619	4166.328
623.747	4136.277
623.875	4187.420
624.003	4144.672
624.131	4176.286
624.260	4204.504
624.388	4181.353
624.516	4192.017
624.644	4182.899
624.772	4191.782
624.900	4183.261
625.028	4196.790
625.156	4207.765
625.285	4254.118
625.413	4265.445
625.541	4243.546
625.669	4259.924
625.797	4269.034
625.925	4259.017
626.053	4254.731
626.181	4249.067
626.310	4350.723
626.438	4266.227
626.566	4286.168
626.694	4293.571
626.822	4288.866
626.950	4337.647
627.078	4267.899
627.206	4322.605
627.335	4334.403
627.463	4308.563
627.591	4327.151
627.719	4383.504
627.847	4342.261
627.975	4375.151
628.103	4375.151
628.231	4378.521
628.360	4376.950
628.488	4374.034
628.616	4370.101
628.744	4400.815
628.872	4383.647
629.000	4405.261
629.128	4401.286
629.256	4384.059
629.385	4412.370
629.513	4412.555
629.641	4432.412
629.769	4452.277
629.897	4450.697
630.025	4423.664
630.153	4482.538
630.281	4448.345
630.410	4444.336
630.538	4454.050
630.666	4459.832
630.794	4453.866
630.922	4498.353
631.050	4471.118
631.178	4495.689
631.306	4478.908
631.435	4494.412
631.563	4507.513
631.691	4538.185
631.819	4592.420
631.947	4508.613
632.075	4478.000
632.203	4556.630
632.331	4518.227
632.460	4546.622
632.588	4528.874
632.716	4545.429
632.844	4591.521
632.972	4517.840
633.100	4532.496
633.228	4545.328
633.356	4542.689
633.485	4541.513
633.613	4566.689
633.741	4561.613
633.869	4557.689
633.997	4571.571
634.125	4619.824
634.253	4578.286
634.381	4590.630
634.510	4585.739
634.638	4618.269
634.766	4656.748
634.894	4596.773
635.022	4599.227
635.150	4607.101
635.278	4611.160
635.406	4621.992
635.535	4600.706
635.663	4637.487
635.791	4557.983
635.919	4605.319
636.047	4590.815
636.175	4610.597
636.303	4614.782
636.431	4631.739
636.560	4637.202
636.688	4619.605
636.816	4619.303
636.944	4609.168
637.072	4635.605
637.200	4638.672
637.328	4632.622
637.456	4629.479
637.585	4623.672
637.713	4646.050
637.841	4642.218
637.969	4625.639
638.097	4645.580
638.225	4649.496
638.353	4661.513
638.481	4661.479
638.610	4654.866
638.738	4673.269
638.866	4673.017
638.994	4687.966
639.122	4645.504
639.250	4663.008
639.378	4709.210
639.506	4694.420
639.635	4702.874
639.763	4679.832
639.891	4718.277
640.019	4725.378
640.147	4745.210
640.275	4705.840
640.403	4715.395
640.531	4772.345
640.660	4728.950
640.788	4810.773
640.916	4765.143
641.044	4730.681
641.172	4736.218
641.300	4761.176
641.428	4762.134
641.556	4798.706
641.685	4798.008
641.813	4767.597
641.941	4813.504
642.069	4805.504
642.197	4862.790
642.325	4833.252
642.453	4788.269
642.581	4901.529
642.710	4794.849
642.838	4834.731
642.966	4825.748
643.094	4841.597
643.222	4825.798
643.350	4852.218
643.478	4887.975
643.606	4871.361
643.735	4829.933
643.863	4870.143
643.991	4876.126
644.119	4876.538
644.247	4897.420
644.375	4895.160
644.503	4898.017
644.631	4921.824
644.760	4921.622
644.888	4925.613
645.016	4954.866
645.144	4929.689
645.272	4888.655
645.400	4939.387
645.528	4939.689
645.656	4922.756
645.785	4931.109
645.913	5010.697
646.041	4951.731
646.169	4985.462
646.297	4929.118
646.425	4970.252
646.553	4964.353
646.681	4929.311
646.810	4954.849
646.938	4924.521
647.066	4886.647
647.194	4989.294
647.322	4912.067
647.450	4956.857
647.578	4934.882
647.706	4911.437
647.835	4922.403
647.963	4986.025
648.091	4906.681
648.219	4965.370
648.347	4955.866
648.475	4901.815
648.603	4914.580
648.731	4886.529
648.860	4900.008
648.988	4897.496
649.116	4890.487
649.244	4848.613
649.372	4897.630
649.500	4880.353
649.628	4914.462
649.756	4884.210
649.885	4861.924
650.013	4833.664
650.141	4838.933
650.269	4821.261
650.397	4802.126
650.525	4774.269
650.653	4839.899
650.781	4798.849
650.910	4788.277
651.038	4737.605
651.166	4743.613
651.294	4747.319
651.422	4735.084
651.550	4714.420
651.678	4745.227
651.806	4716.210
651.935	4701.605
652.063	4729.723
652.191	4698.605
652.319	4665.748
652.447	4683.218
652.575	4667.605
652.703	4690.479
652.831	4683.958
652.960	4637.655
653.088	4661.244
653.216	4645.689
653.344	4645.933
653.472	4637.345
653.600	4612.983
653.728	4612.622
653.856	4628.605
653.985	4610.269
654.113	4591.176
654.241	4608.277
654.369	4592.924
654.497	4608.429
654.625	4597.874
654.753	4562.471
654.881	4583.924
655.010	4616.664
655.138	4563.471
655.266	4556.588
655.394	4568.588
655.522	4583.571
655.650	4505.050
655.778	4598.731
655.906	4531.034
656.035	4485.798
656.163	4493.849
656.291	4503.597
656.419	4525.050
656.547	4497.529
656.675	4502.454
656.803	4508.849
656.931	4465.059
657.060	4495.739
657.188	4478.782
657.316	4481.807
657.444	4457.126
657.572	4463.580
657.700	4453.874
657.828	4452.210
657.956	4499.387
658.085	4511.345
658.213	4526.597
658.341	4483.000
658.469	4475.782
658.597	4538.042
658.725	4481.454
658.853	4470.908
658.981	4442.639
659.110	4483.639
659.238	4492.496
659.366	4427.353
659.494	4424.941
659.622	4412.513
659.750	4424.613
659.878	4398.672
660.006	4398.916
660.135	4395.101
660.263	4393.261
660.391	4479.588
660.519	4462.101
660.647	4371.924
660.775	4366.773
660.903	4350.462
661.031	4357.630
661.160	4401.059
661.288	4365.975
661.416	4370.849
661.544	4364.815
661.672	4335.353
661.800	4334.697
661.928	4322.790
662.056	4369.571
662.185	4274.286
662.313	4332.336
662.441	4378.933
662.569	4324.143
662.697	4277.000
662.825	4266.277
662.953	4257.353
663.081	4251.840
663.210	4251.479
663.338	4248.563
663.466	4252.773
663.594	4272.933
663.722	4229.874
663.850	4247.832
663.978	4238.067
664.106	4289.387
664.235	4199.790
664.363	4240.067
664.491	4227.832
664.619	4208.420
664.747	4203.504
664.875	4193.387
665.003	4231.496
665.131	4162.958
665.260	4220.832
665.388	4177.622
665.516	4130.252
665.644	4173.210
665.772	4155.521
665.900	4163.874
666.028	4139.118
666.156	4145.034
666.285	4130.378
666.413	4158.916
666.541	4143.210
666.669	4126.084
666.797	4104.655
666.925	4097.109
667.053	4167.924
667.181	4071.050
667.310	4105.202
667.438	4091.639
667.566	4090.235
667.694	4100.126
667.822	4084.101
667.950	4049.202
668.078	4067.824
668.206	4059.790
668.335	4020.857
668.463	4043.303
668.591	4031.151
668.719	4043.076
668.847	4022.563
668.975	4022.176
669.103	4006.345
669.231	4033.361
669.360	3967.387
669.488	3980.756
669.616	3962.815
669.744	3999.076
669.872	3965.521
670.000	3959.202
670.128	3934.899
670.256	3917.891
670.385	3938.571
670.513	3922.025
670.641	3955.950
670.769	3948.361
670.897	3878.899
671.025	3907.689
671.153	3900.849
671.281	3917.151
671.410	3946.563
671.538	3866.773
671.666	3907.891
671.794	3905.017
671.922	3896.286
672.050	3912.563
672.178	3825.008
672.306	3846.202
672.435	3876.042
672.563	3840.613
672.691	3863.908
672.819	3817.672
672.947	3805.303
673.075	3783.151
673.203	3791.378
673.331	3763.034
673.460	3765.588
673.588	3762.882
673.716	3797.143
673.844	3764.134
673.972	3738.176
674.100	3721.950
674.228	3708.815
674.356	3680.882
674.485	3708.807
674.613	3707.261
674.741	3687.966
674.869	3642.303
674.997	3696.479
675.125	3672.151
675.253	3631.403
675.381	3652.571
675.510	3607.462
675.638	3644.555
675.766	3577.849
675.894	3643.958
676.022	3580.034
676.150	3581.756
676.278	3586.496
676.406	3566.008
676.535	3589.185
676.663	3562.529
676.791	3534.882
676.919	3513.395
677.047	3504.664
677.175	3523.395
677.303	3574.597
677.431	3446.076
677.560	3455.832
677.688	3438.588
677.816	3495.798
677.944	3448.513
678.072	3399.546
678.200	3402.958
678.328	3407.496
678.456	3406.420
678.585	3371.765
678.713	3390.655
678.841	3360.294
678.969	3373.017
679.097	3388.218
679.225	3336.235
679.353	3323.504
679.481	3306.580
679.610	3293.790
679.738	3275.714
679.866	3307.109
679.994	3288.681
680.122	3288.361
680.250	3253.294
680.378	3260.773
680.506	3228.496
680.635	3243.832
680.763	3266.924
680.891	3239.689
681.019	3202.008
681.147	3225.555
681.275	3188.723
681.403	3170.689
681.531	3176.840
681.660	3186.866
681.788	3245.261
681.916	3115.857
682.044	3148.471
682.172	3134.210
682.300	3100.042
682.428	3103.059
682.556	3135.378
682.685	3112.336
682.813	3128.218
682.941	3086.034
683.069	3049.529
683.197	3088.168
683.325	3068.462
683.453	3055.622
683.581	3091.160
683.710	3046.739
683.838	3030.176
683.966	3044.891
684.094	3049.840
684.222	3024.630
684.350	3009.630
684.478	2980.891
684.606	3035.336
684.735	2990.059
684.863	2971.218
684.991	3020.353
685.119	3022.866
685.247	3043.412
685.375	2948.412
685.503	2995.286
685.631	3012.521
685.760	2957.613
685.888	2938.672
686.016	2949.504
686.144	2952.966
686.272	2940.345
686.400	2917.000
686.528	2894.697
686.656	2881.395
686.785	2885.613
686.913	2883.025
687.041	2866.849
687.169	2861.613
687.297	2908.303
687.425	2896.336
687.553	2863.160
687.681	2821.546
687.810	2848.782
687.938	2839.807
688.066	2834.210
688.194	2832.765
688.322	2856.151
688.450	2834.882
688.578	2827.235
688.706	2806.521
688.835	2833.025
688.963	2804.916
689.091	2802.555
689.219	2792.571
689.347	2793.840
689.475	2822.176
689.603	2794.403
689.731	2809.050
689.860	2767.832
689.988	2736.655
690.116	2763.647
690.244	2816.042
690.372	2721.151
690.500	2746.227
690.628	2754.437
690.756	2744.328
690.885	2688.378
691.013	2738.429
691.141	2712.731
691.269	2738.782
691.397	2674.378
691.525	2672.639
691.653	2695.975
691.781	2661.361
691.910	2692.084
692.038	2714.319
692.166	2651.555
692.294	2726.849
692.422	2664.134
692.550	2722.336
692.678	2657.563
692.806	2662.126
692.935	2647.328
693.063	2624.067
693.191	2645.605
693.319	2630.303
693.447	2625.244
693.575	2591.143
693.703	2638.807
693.831	2594.672
693.960	2568.336
694.088	2571.529
694.216	2568.303
694.344	2596.975
694.472	2574.723
694.600	2550.731
694.728	2546.815
694.856	2539.908
694.985	2522.748
695.113	2521.588
695.241	2529.983
695.369	2533.521
695.497	2525.311
695.625	2516.840
695.753	2500.555
695.881	2476.118
696.010	2470.613
696.138	2482.479
696.266	2459.857
696.394	2449.487
696.522	2432.782
696.650	2423.126
696.778	2453.084
696.906	2439.622
697.035	2402.697
697.163	2421.261
697.291	2402.966
697.419	2411.731
697.547	2383.050
697.675	2388.210
697.803	2367.429
697.931	2362.571
698.060	2358.017
698.188	2347.613
698.316	2360.294
698.444	2321.647
698.572	2306.958
698.700	2348.538
698.828	2311.294
698.956	2291.261
699.085	2299.655
699.213	2282.176
699.341	2280.563
699.469	2275.513
699.597	2282.924
699.725	2275.647
699.853	2249.597
699.981	2240.319
700.110	2240.504
700.238	2242.487
700.366	2221.319
700.494	2203.487
700.622	2201.294
700.750	2203.891
700.878	2214.286
701.006	2163.513
701.135	2187.034
701.263	2172.387
701.391	2168.017
701.519	2176.445
701.647	2160.639
701.775	2162.916
701.903	2150.378
702.031	2145.059
702.160	2143.782
702.288	2132.647
702.416	2132.571
702.544	2104.050
702.672	2102.277
702.800	2094.126
702.928	2102.496
703.056	2104.412
703.185	2086.916
703.313	2088.202
703.441	2068.731
703.569	2074.151
703.697	2070.101
703.825	2070.882
703.953	2068.756
704.081	2047.924
704.210	2033.756
704.338	2045.193
704.466	2020.916
704.594	2029.504
704.722	2015.958
704.850	2019.824
704.978	2014.092
705.106	1995.723
705.235	1991.832
705.363	1977.395
705.491	1988.017
705.619	1973.849
705.747	1962.950
705.875	1976.630
706.003	1966.966
706.131	1947.479
706.260	1928.950
706.388	1936.580
706.516	1929.773
706.644	1925.286
706.772	1913.555
706.900	1902.235
707.028	1894.672
707.156	1891.513
707.285	1898.824
707.413	1886.479
707.541	1860.521
707.669	1870.815
707.797	1859.613
707.925	1852.664
708.053	1856.101
708.181	1849.824
708.310	1834.546
708.438	1831.504
708.566	1823.563
708.694	1822.176
708.822	1834.655
708.950	1819.017
709.078	1786.067
709.206	1792.950
709.335	1785.227
709.463	1774.395
709.591	1768.622
709.719	1747.218
709.847	1751.992
709.975	1768.824
710.103	1731.067
710.231	1736.933
710.360	1725.067
710.488	1704.874
710.616	1721.807
710.744	1709.731
710.872	1708.134
711.000	1699.613
711.128	1675.454
711.256	1675.471
711.385	1686.328
711.513	1672.479
711.641	1665.924
711.769	1665.958
711.897	1662.714
712.025	1648.252
712.153	1647.311
712.281	1640.034
712.410	1635.765
712.538	1641.933
712.666	1629.857
712.794	1617.437
712.922	1609.109
713.050	1603.916
713.178	1598.748
713.306	1597.336
713.435	1596.286
713.563	1587.924
713.691	1593.227
713.819	1581.336
713.947	1577.857
714.075	1563.983
714.203	1572.008
714.331	1557.866
714.460	1548.849
714.588	1543.479
714.716	1549.723
714.844	1530.000
714.972	1527.126
715.100	1530.933
715.228	1522.109
715.356	1529.966
715.485	1519.538
715.613	1507.076
715.741	1505.555
715.869	1502.126
715.997	1479.555
716.125	1488.160
716.253	1489.966
716.381	1489.067
716.510	1485.824
716.638	1474.739
716.766	1463.529
716.894	1468.294
717.022	1455.513
717.150	1456.773
717.278	1450.739
717.406	1453.807
717.535	1446.874
717.663	1441.966
717.791	1445.462
717.919	1432.000
718.047	1424.908
718.175	1428.059
718.303	1432.471
718.431	1412.336
718.560	1420.202
718.688	1411.605
718.816	1404.950
718.944	1410.403
719.072	1409.807
719.200	1395.471
719.328	1394.025
719.456	1395.059
719.585	1399.176
719.713	1393.647
719.841	1383.487
719.969	1369.765
720.097	1364.580
720.225	1360.462
720.353	1357.269
720.481	1358.924
720.610	1351.857
720.738	1341.815
720.866	1342.496
720.994	1347.630
721.122	1356.739
721.250	1335.445
721.378	1322.210
721.506	1334.504
721.635	1336.261
721.763	1316.689
721.891	1310.294
722.019	1305.101
722.147	1310.034
722.275	1295.630
722.403	1293.303
722.531	1298.849
722.660	1295.454
722.788	1288.076
722.916	1289.975
723.044	1275.798
723.172	1276.933
723.300	1272.286
723.428	1276.790
723.556	1266.655
723.685	1269.277
723.813	1257.916
723.941	1249.328
724.069	1249.664
724.197	1243.546
724.325	1229.697
724.453	1232.832
724.581	1226.395
724.710	1231.252
724.838	1222.798
724.966	1209.345
725.094	1209.218
725.222	1197.412
725.350	1204.361
725.478	1190.630
725.606	1196.773
725.735	1179.328
725.863	1178.202
725.991	1177.143
726.119	1173.874
726.247	1167.244
726.375	1163.336
726.503	1160.697
726.631	1160.387
726.760	1141.933
726.888	1161.244
727.016	1144.605
727.144	1144.748
727.272	1143.160
727.400	1127.025
727.528	1116.378
727.656	1116.126
727.785	1113.555
727.913	1125.143
728.041	1102.034
728.169	1119.059
728.297	1098.311
728.425	1094.303
728.553	1095.832
728.681	1086.496
728.810	1081.109
728.938	1076.765
729.066	1077.454
729.194	1084.866
729.322	1062.084
729.450	1048.168
729.578	1066.765
729.706	1047.471
729.835	1061.235
729.963	1057.361
730.091	1039.563
730.219	1037.605
730.347	1042.571
730.475	1035.160
730.603	1033.101
730.731	1024.681
730.860	1012.992
730.988	1011.345
731.116	1018.992
731.244	1016.025
731.372	1000.605
731.500	1012.630
731.628	998.571
731.756	1000.445
731.885	997.462
732.013	1001.924
732.141	982.395
732.269	991.765
732.397	987.345
732.525	972.050
732.653	971.622
732.781	971.950
732.910	972.714
733.038	964.992
733.166	964.790
733.294	963.689
733.422	956.311
733.550	959.050
733.678	956.303
733.806	950.891
733.935	949.092
734.063	932.916
734.191	948.731
734.319	928.387
734.447	933.429
734.575	931.714
734.703	927.025
734.831	917.941
734.960	925.588
735.088	921.269
735.216	923.160
735.344	911.378
735.472	905.353
735.600	911.866
735.728	906.126
735.856	903.017
735.985	902.000
736.113	902.773
736.241	890.151
736.369	889.412
736.497	891.681
736.625	880.714
736.753	882.336
736.881	875.807
737.010	877.042
737.138	878.714
737.266	874.504
737.394	869.387
737.522	880.092
737.650	862.076
737.778	862.202
737.906	859.336
738.035	846.101
738.163	853.151
738.291	849.706
738.419	843.773
738.547	847.319
738.675	845.336
738.803	844.756
738.931	832.101
739.060	832.538
739.188	832.151
739.316	831.874
739.444	821.924
739.572	820.303
739.700	815.076
739.828	812.689
739.956	817.218
740.085	814.269
740.213	814.714
740.341	801.840
740.469	802.748
740.597	805.042
740.725	800.311
740.853	797.731
740.981	793.933
741.110	793.748
741.238	807.370
741.366	796.546
741.494	792.824
741.622	787.412
741.750	786.849
741.878	797.798
742.006	775.008
742.135	778.958
742.263	779.613
742.391	774.361
742.519	779.933
742.647	774.353
742.775	774.681
742.903	773.387
743.031	761.008
743.160	767.487
743.288	766.756
743.416	758.218
743.544	756.412
743.672	761.008
743.800	756.084
743.928	757.773
744.056	742.756
744.185	752.529
744.313	746.261
744.441	749.361
744.569	746.387
744.697	738.647
744.825	749.815
744.953	745.395
745.081	730.353
745.210	734.303
745.338	734.445
745.466	733.529
745.594	721.210
745.722	723.160
745.850	716.807
745.978	719.504
746.106	721.899
746.235	708.437
746.363	711.588
746.491	711.462
746.619	713.983
746.747	699.395
746.875	698.109
747.003	703.328
747.131	701.941
747.260	694.378
747.388	691.992
747.516	697.571
747.644	687.832
747.772	685.555
747.900	688.504
748.028	688.496
748.156	678.185
748.285	681.118
748.413	679.160
748.541	677.311
748.669	667.958
748.797	670.319
748.925	669.193
749.053	664.597
749.181	660.185
749.310	663.782
749.438	652.479
749.566	655.227
749.694	653.790
749.822	652.101
749.950	648.798
750.078	649.513
750.206	645.479
750.335	638.723
750.463	638.782
750.591	639.160
750.719	629.336
750.847	628.731
750.975	630.765
751.103	619.269
751.231	620.983
751.360	623.487
751.488	611.832
751.616	616.143
751.744	613.538
751.872	612.664
752.000	610.529
752.128	602.160
752.256	601.597
752.385	602.807
752.513	599.580
752.641	593.092
752.769	597.580
752.897	591.479
753.025	588.076
753.153	580.252
753.281	582.017
753.410	582.538
753.538	582.042
753.666	576.891
753.794	579.471
753.922	569.924
754.050	576.765
754.178	571.395
754.306	563.966
754.435	569.832
754.563	571.050
754.691	564.134
754.819	562.891
754.947	556.496
755.075	561.336
755.203	561.571
755.331	557.025
755.460	546.832
755.588	551.807
755.716	540.387
755.844	539.748
755.972	541.840
756.100	542.571
756.228	534.059
756.356	537.479
756.485	538.899
756.613	538.034
756.741	531.924
756.869	525.471
756.997	533.664
757.125	530.210
757.253	526.244
757.381	524.134
757.510	528.420
757.638	517.748
757.766	517.807
757.894	513.756
758.022	517.017
758.150	510.975
758.278	514.286
758.406	507.109
758.535	510.303
758.663	508.395
758.791	500.000
758.919	505.034
759.047	497.034
759.175	499.210
759.303	493.655
759.431	494.613
759.560	495.807
759.688	493.319
759.816	490.252
759.944	489.034
760.072	487.639
760.200	480.672
760.328	489.176
760.456	477.580
760.585	477.387
760.713	474.756
760.841	473.403
760.969	475.303
761.097	473.748
761.225	473.748
761.353	472.975
761.481	468.849
761.610	464.395
761.738	465.403
761.866	459.571
761.994	469.076
762.122	453.824
762.250	459.639
762.378	449.361
762.506	454.672
762.635	456.849
762.763	450.882
762.891	451.555
763.019	450.395
763.147	447.866
763.275	442.975
763.403	447.017
763.531	443.050
763.660	445.689
763.788	438.235
763.916	443.899
764.044	441.370
764.172	437.563
764.300	430.210
764.428	430.303
764.556	427.336
764.685	433.092
764.813	432.445
764.941	424.588
765.069	432.277
765.197	427.840
765.325	421.782
765.453	420.336
765.581	426.471
765.710	420.076
765.838	416.412
765.966	418.622
766.094	413.336
766.222	415.706
766.350	413.269
766.478	412.235
766.606	411.202
766.735	413.328
766.863	402.908
766.991	403.244
767.119	403.580
767.247	401.555
767.375	397.454
767.503	402.092
767.631	404.731
767.760	399.118
767.888	398.622
768.016	399.025
768.144	392.034
768.272	395.311
768.400	394.849
768.528	395.345
768.656	389.891
768.785	391.697
768.913	388.529
769.041	391.513
769.169	385.546
769.297	385.538
769.425	383.748
769.553	383.126
769.681	383.941
769.810	383.630
769.938	379.487
770.066	385.429
770.194	379.008
770.322	373.176
770.450	376.664
770.578	373.185
770.706	371.412
770.835	371.151
770.963	375.092
771.091	371.933
771.219	370.412
771.347	366.151
771.475	367.059
771.603	362.437
771.731	362.126
771.860	362.151
771.988	358.664
772.116	358.487
772.244	354.134
772.372	357.874
772.500	355.252
772.628	356.933
772.756	354.235
772.885	357.008
773.013	350.244
773.141	346.874
773.269	354.176
773.397	347.613
773.525	347.101
773.653	344.739
773.781	341.218
773.910	339.849
774.038	342.218
774.166	341.303
774.294	340.588
774.422	342.412
774.550	338.042
774.678	337.647
774.806	335.261
774.935	334.454
775.063	329.286
775.191	334.647
775.319	334.168
775.447	329.319
775.575	327.000
775.703	329.613
775.831	329.277
775.960	324.504
776.088	324.008
776.216	325.050
776.344	325.891
776.472	324.714
776.600	321.454
776.728	317.277
776.856	318.328
776.985	316.101
777.113	316.370
777.241	316.941
777.369	318.227
777.497	309.908
777.625	313.092
777.753	310.891
777.881	311.387
778.010	310.025
778.138	306.622
778.266	306.017
778.394	307.059
778.522	306.908
778.650	306.345
778.778	302.429
778.906	300.605
779.035	303.857
779.163	301.639
779.291	299.782
779.419	295.605
779.547	297.076
779.675	295.286
779.803	292.891
779.931	291.765
780.060	294.639
780.188	290.042
780.316	291.353
780.444	292.529
780.572	284.840
780.700	287.908
780.828	287.042
780.956	283.756
781.085	283.849
781.213	285.176
781.341	282.916
781.469	282.345
781.597	283.218
781.725	278.580
781.853	280.437
781.981	274.034
782.110	277.571
782.238	278.067
782.366	275.294
782.494	272.345
782.622	275.193
782.750	270.462
782.878	269.328
783.006	266.756
783.135	271.714
783.263	267.857
783.391	268.252
783.519	266.067
783.647	263.723
783.775	264.840
783.903	261.345
784.031	260.647
784.160	260.723
784.288	259.059
784.416	259.168
784.544	256.479
784.672	255.000
784.800	254.479
784.928	252.067
785.056	253.118
785.185	251.849
785.313	249.437
785.441	250.008
785.569	247.235
785.697	247.437
785.825	245.496
785.953	244.471
786.081	246.034
786.210	246.874
786.338	243.664
786.466	244.210
786.594	240.689
786.722	244.151
786.850	241.555
786.978	241.126
787.106	238.647
787.235	237.277
787.363	239.529
787.491	234.697
787.619	234.294
787.747	235.286
787.875	231.454
788.003	232.218
788.131	232.050
788.260	228.361
788.388	230.798
788.516	226.328
788.644	227.975
788.772	226.723
788.900	228.647
789.028	222.286
789.156	228.748
789.285	221.008
789.413	223.101
789.541	222.387
789.669	220.866
789.797	221.000
789.925	218.857
790.053	218.950
790.181	218.605
790.310	218.235
790.438	215.723
790.566	214.714
790.694	214.546
790.822	213.655
790.950	213.672
791.078	212.395
791.206	208.866
791.335	211.504
791.463	212.605
791.591	211.496
791.719	207.496
791.847	206.840
791.975	208.933
792.103	207.387
792.231	208.176
792.360	204.462
792.488	201.975
792.616	204.597
792.744	203.008
792.872	203.227
793.000	200.513
793.128	201.176
793.256	202.378
793.385	199.252
793.513	200.924
793.641	198.521
793.769	197.765
793.897	196.697
794.025	199.731
794.153	194.639
794.281	193.975
794.410	194.202
794.538	196.933
794.666	192.924
794.794	191.454
794.922	190.403
795.050	188.731
795.178	192.487
795.306	186.866
795.435	186.874
795.563	191.840
795.691	187.790
795.819	189.210
795.947	186.160
796.075	185.739
796.203	188.496
796.331	183.916
796.460	185.429
796.588	186.756
796.716	183.706
796.844	183.395
796.972	184.647
797.100	181.034
797.228	182.378
797.356	183.403
797.485	180.420
797.613	179.571
797.741	179.866
797.869	180.370
797.997	179.723
798.125	178.622
798.253	179.966
798.381	177.294
798.510	177.445
798.638	175.916
798.766	172.622
798.894	173.454
799.022	173.462
799.150	174.042
799.278	170.992
799.406	172.092
799.535	174.487
799.663	176.328
799.791	172.437
799.919	170.580
800.047	171.605
800.175	170.454
800.303	169.706
800.431	165.966
800.560	167.630
800.688	167.798
800.816	168.185
800.944	168.706
801.072	168.908
801.200	168.311
801.328	166.092
801.456	167.252
801.585	166.672
801.713	165.697
801.841	163.504
801.969	165.042
802.097	165.235
802.225	165.714
802.353	165.513
802.481	162.622
802.610	161.361
802.738	164.202
802.866	163.622
802.994	162.109
803.122	162.958
803.250	162.319
803.378	160.143
803.506	160.824
803.635	161.773
803.763	160.387
803.891	158.706
804.019	158.538
804.147	158.630
804.275	157.655
804.403	157.286
804.531	157.479
804.660	156.487
804.788	156.950
804.916	153.723
805.044	155.479
805.172	155.336
805.300	155.261
805.428	154.479
805.556	154.059
805.685	154.336
805.813	153.504
805.941	153.109
806.069	152.370
806.197	154.824
806.325	151.672
806.453	153.126
806.581	152.017
806.710	152.798
806.838	149.849
806.966	149.429
807.094	148.303
807.222	147.815
807.350	148.950
807.478	149.151
807.606	145.840
807.735	146.689
807.863	146.303
807.991	147.580
808.119	145.244
808.247	147.866
808.375	148.336
808.503	147.328
808.631	145.975
808.760	144.471
808.888	144.899
809.016	145.143
809.144	145.546
809.272	145.563
809.400	145.563
809.528	144.353
809.656	144.151
809.785	141.529
809.913	142.345
810.041	142.101
810.169	140.857
810.297	142.025
810.425	141.454
810.553	141.008
810.681	141.420
810.810	141.605
810.938	141.580
811.066	139.353
811.194	140.815
811.322	139.714
811.450	140.538
811.578	140.782
811.706	138.622
811.835	140.395
811.963	140.034
812.091	139.605
812.219	137.790
812.347	138.916
812.475	138.395
812.603	140.025
812.731	136.916
812.860	137.941
812.988	135.689
813.116	135.941
813.244	137.185
813.372	137.546
813.500	137.765
813.628	137.521
813.756	134.613
813.885	135.496
814.013	135.714
814.141	133.000
814.269	135.689
814.397	134.571
814.525	133.765
814.653	134.647
814.781	133.471
814.910	132.580
815.038	133.706
815.166	134.076
815.294	132.042
815.422	133.454
815.550	132.387
815.678	131.958
815.806	133.059
815.935	131.000
816.063	131.311
816.191	131.118
816.319	128.924
816.447	131.546
816.575	130.454
816.703	130.244
816.831	129.924
816.960	130.815
817.088	130.345
817.216	129.143
817.344	129.714
817.472	130.042
817.600	128.647
817.728	129.101
817.856	130.723
817.985	127.571
818.113	128.168
818.241	129.210
818.369	127.218
818.497	128.370
818.625	127.109
818.753	127.958
818.881	128.084
819.010	127.563
819.138	126.445
819.266	126.832
819.394	126.445
819.522	124.454
819.650	126.462
819.778	125.429
819.906	126.597
820.035	128.193
820.163	125.588
820.291	124.092
820.419	125.672
820.547	124.958
820.675	123.849
820.803	125.597
820.931	123.429
821.060	122.807
821.188	124.092
821.316	123.681
821.444	124.639
821.572	123.672
821.700	124.840
821.828	124.546
821.956	124.714
822.085	123.866
822.213	124.067
822.341	123.160
822.469	120.613
822.597	121.353
822.725	123.538
822.853	121.067
822.981	121.471
823.110	123.462
823.238	120.613
823.366	121.017
823.494	120.824
823.622	120.277
823.750	119.824
823.878	119.210
824.006	122.218
824.135	120.387
824.263	121.815
824.391	121.050
824.519	121.672
824.647	120.588
824.775	119.739
824.903	121.580
825.031	119.832
825.160	119.286
825.288	119.563
825.416	120.605
825.544	119.546
825.672	120.134
825.800	119.824
825.928	119.420
826.056	119.042
826.185	118.782
826.313	119.462
826.441	118.891
826.569	118.261
826.697	119.513
826.825	119.034
826.953	118.807
827.081	117.109
827.210	118.118
827.338	117.798
827.466	115.597
827.594	118.496
827.722	117.815
827.850	117.454
827.978	116.126
828.106	116.697
828.235	118.546
828.363	117.622
828.491	116.689
828.619	116.681
828.747	116.613
828.875	116.504
829.003	117.479
829.131	116.950
829.260	118.050
829.388	117.017
829.516	116.807
829.644	116.000
829.772	115.958
829.900	115.563
830.028	116.076
830.156	115.193
830.285	115.899
830.413	115.950
830.541	116.924
830.669	114.773
830.797	115.445
830.925	115.008
831.053	113.420
831.181	114.681
831.310	115.176
831.438	115.496
831.566	114.731
831.694	113.571
831.822	114.538
831.950	114.714
832.078	113.899
832.206	114.067
832.335	114.059
832.463	113.849
832.591	114.857
832.719	114.017
832.847	113.748
832.975	113.824
833.103	113.563
833.231	113.454
833.360	113.723
833.488	113.681
833.616	112.706
833.744	112.462
833.872	113.723
834.000	114.218
834.128	113.025
834.256	113.538
834.385	112.832
834.513	113.361
834.641	111.109
834.769	112.294
834.897	113.294
835.025	111.008
835.153	111.605
835.281	112.109
835.410	111.874
835.538	112.924
835.666	112.588
835.794	112.891
835.922	112.471
836.050	111.958
836.178	111.252
836.306	111.748
836.435	111.353
836.563	111.328
836.691	112.034
836.819	113.420
836.947	111.866
837.075	111.227
837.203	109.361
837.331	110.655
837.460	111.714
837.588	112.403
837.716	111.832
837.844	111.546
837.972	110.613
838.100	110.311
838.228	110.059
838.356	110.118
838.485	109.479
838.613	111.067
838.741	110.723
838.869	111.151
838.997	110.966
839.125	109.269
839.253	109.824
839.381	111.437
839.510	109.403
839.638	110.655
839.766	110.689
839.894	110.101
840.022	111.109
840.150	111.168
840.278	108.924
840.406	110.193
840.535	109.899
840.663	108.513
840.791	109.319
840.919	109.445
841.047	109.899
841.175	109.395
841.303	109.412
841.431	109.824
841.560	109.311
841.688	109.765
841.816	108.824
841.944	109.395
842.072	109.227
842.200	109.185
842.328	109.697
842.456	108.966
842.585	108.790
842.713	108.655
842.841	109.319
842.969	109.353
843.097	109.597
843.225	108.714
843.353	109.731
843.481	108.924
843.610	109.185
843.738	107.874
843.866	107.958
