70-70-90_at_679.99nm_cut_at_1286.00Y_01.dat
24.01.2024
11:25:42
cut middle at Y: 1286.00
top cursor: 1345 down cursor: 1227 mean of: 118 lines , 2560 datapoints
wavelength(nm)	intensity[arb. units]
515.994	462.339
516.122	443.958
516.250	439.076
516.378	427.449
516.506	433.280
516.635	433.212
516.763	435.364
516.891	438.449
517.019	438.381
517.147	436.000
517.275	440.746
517.403	440.593
517.531	435.008
517.660	433.797
517.788	441.771
517.916	439.136
518.044	436.763
518.172	438.703
518.300	437.814
518.428	437.212
518.556	442.381
518.685	439.797
518.813	440.746
518.941	445.695
519.069	439.178
519.197	444.229
519.325	443.220
519.453	440.992
519.581	448.797
519.710	441.186
519.838	451.780
519.966	452.458
520.094	451.263
520.222	446.941
520.350	452.356
520.478	448.754
520.606	456.466
520.735	451.585
520.863	456.169
520.991	460.669
521.119	457.703
521.247	457.568
521.375	457.525
521.503	463.263
521.631	465.178
521.760	466.958
521.888	461.229
522.016	464.619
522.144	467.068
522.272	467.729
522.400	469.636
522.528	471.898
522.656	469.186
522.785	468.305
522.913	474.153
523.041	469.008
523.169	469.254
523.297	474.644
523.425	475.864
523.553	472.449
523.681	474.492
523.810	477.534
523.938	476.517
524.066	473.746
524.194	476.602
524.322	476.627
524.450	473.653
524.578	474.331
524.706	478.517
524.835	470.610
524.963	477.068
525.091	473.127
525.219	476.254
525.347	471.203
525.475	477.966
525.603	477.534
525.731	475.458
525.860	475.703
525.988	470.441
526.116	473.127
526.244	477.703
526.372	478.186
526.500	472.280
526.628	478.568
526.756	475.212
526.885	478.288
527.013	477.110
527.141	477.822
527.269	476.263
527.397	478.008
527.525	478.661
527.653	476.525
527.781	476.339
527.910	483.864
528.038	482.322
528.166	483.458
528.294	486.288
528.422	481.195
528.550	487.839
528.678	485.847
528.806	489.737
528.935	494.568
529.063	485.339
529.191	493.381
529.319	489.797
529.447	493.407
529.575	494.000
529.703	495.932
529.831	497.415
529.960	492.297
530.088	500.449
530.216	498.153
530.344	494.449
530.472	495.254
530.600	498.754
530.728	497.051
530.856	504.822
530.985	501.186
531.113	499.508
531.241	502.831
531.369	507.695
531.497	501.822
531.625	504.619
531.753	496.915
531.881	508.788
532.010	507.246
532.138	503.136
532.266	498.068
532.394	502.305
532.522	502.992
532.650	502.237
532.778	505.339
532.906	506.508
533.035	511.347
533.163	499.966
533.291	500.475
533.419	498.763
533.547	504.364
533.675	509.042
533.803	498.068
533.931	497.415
534.060	507.000
534.188	503.008
534.316	502.458
534.444	506.720
534.572	505.585
534.700	509.246
534.828	501.754
534.956	507.924
535.085	509.653
535.213	510.856
535.341	507.568
535.469	506.780
535.597	508.763
535.725	509.517
535.853	512.229
535.981	515.025
536.110	513.746
536.238	513.898
536.366	517.441
536.494	517.797
536.622	525.992
536.750	515.161
536.878	523.492
537.006	523.873
537.135	524.602
537.263	519.627
537.391	523.644
537.519	527.839
537.647	531.153
537.775	527.339
537.903	526.102
538.031	529.627
538.160	526.483
538.288	532.000
538.416	535.195
538.544	533.119
538.672	534.314
538.800	531.915
538.928	537.068
539.056	538.788
539.185	533.025
539.313	532.449
539.441	537.763
539.569	536.093
539.697	537.407
539.825	536.864
539.953	535.797
540.081	533.432
540.210	540.746
540.338	538.483
540.466	541.339
540.594	535.856
540.722	539.517
540.850	541.347
540.978	537.153
541.106	536.237
541.235	542.746
541.363	541.085
541.491	539.407
541.619	535.093
541.747	538.424
541.875	539.178
542.003	537.873
542.131	540.492
542.260	542.458
542.388	536.890
542.516	542.432
542.644	539.686
542.772	538.034
542.900	538.898
543.028	542.822
543.156	542.195
543.285	540.576
543.413	542.220
543.541	541.568
543.669	548.924
543.797	546.076
543.925	547.203
544.053	549.686
544.181	543.695
544.310	546.805
544.438	547.703
544.566	548.619
544.694	550.585
544.822	551.864
544.950	550.932
545.078	548.864
545.206	551.924
545.335	555.008
545.463	548.110
545.591	554.288
545.719	552.576
545.847	550.280
545.975	557.110
546.103	556.034
546.231	559.195
546.360	553.678
546.488	550.398
546.616	560.102
546.744	554.314
546.872	560.814
547.000	560.890
547.128	559.703
547.256	559.271
547.385	552.898
547.513	553.254
547.641	557.932
547.769	563.593
547.897	561.602
548.025	565.017
548.153	563.585
548.281	558.203
548.410	563.059
548.538	567.864
548.666	568.780
548.794	569.695
548.922	560.322
549.050	565.280
549.178	565.068
549.306	566.627
549.435	575.186
549.563	563.788
549.691	558.381
549.819	572.034
549.947	569.424
550.075	571.398
550.203	568.992
550.331	568.212
550.460	564.839
550.588	567.610
550.716	569.720
550.844	565.771
550.972	566.119
551.100	566.161
551.228	566.983
551.356	564.915
551.485	563.653
551.613	559.653
551.741	556.839
551.869	560.229
551.997	555.432
552.125	555.432
552.253	556.932
552.381	557.568
552.510	554.508
552.638	551.881
552.766	559.314
552.894	548.169
553.022	550.814
553.150	557.229
553.278	550.331
553.406	550.000
553.535	547.000
553.663	552.703
553.791	556.263
553.919	552.203
554.047	560.390
554.175	551.661
554.303	553.458
554.431	552.059
554.560	553.025
554.688	552.788
554.816	552.398
554.944	556.754
555.072	550.034
555.200	555.271
555.328	553.814
555.456	562.449
555.585	560.195
555.713	553.678
555.841	563.093
555.969	550.763
556.097	559.636
556.225	561.246
556.353	567.288
556.481	560.178
556.610	569.839
556.738	565.822
556.866	565.280
556.994	565.958
557.122	563.424
557.250	574.737
557.378	569.780
557.506	568.153
557.635	565.847
557.763	566.975
557.891	570.534
558.019	574.195
558.147	572.280
558.275	573.178
558.403	575.754
558.531	572.153
558.660	571.932
558.788	576.322
558.916	573.246
559.044	572.000
559.172	574.695
559.300	582.305
559.428	576.576
559.556	583.390
559.685	583.119
559.813	585.034
559.941	583.305
560.069	581.373
560.197	578.102
560.325	583.703
560.453	587.424
560.581	579.958
560.710	582.686
560.838	584.508
560.966	583.746
561.094	585.653
561.222	582.466
561.350	583.644
561.478	578.898
561.606	581.042
561.735	582.678
561.863	575.788
561.991	581.924
562.119	577.627
562.247	581.703
562.375	580.271
562.503	581.381
562.631	580.576
562.760	576.958
562.888	576.364
563.016	579.178
563.144	582.975
563.272	579.475
563.400	570.102
563.528	579.136
563.656	577.441
563.785	578.542
563.913	578.644
564.041	570.686
564.169	579.703
564.297	575.737
564.425	579.475
564.553	577.712
564.681	581.441
564.810	576.000
564.938	579.720
565.066	576.915
565.194	577.864
565.322	578.636
565.450	578.347
565.578	583.466
565.706	578.737
565.835	589.407
565.963	586.441
566.091	577.085
566.219	581.966
566.347	579.271
566.475	583.203
566.603	587.119
566.731	590.788
566.860	588.449
566.988	582.517
567.116	591.644
567.244	593.119
567.372	595.492
567.500	589.305
567.628	589.339
567.756	590.746
567.885	598.873
568.013	604.322
568.141	600.839
568.269	591.347
568.397	601.432
568.525	601.915
568.653	606.093
568.781	607.203
568.910	614.297
569.038	609.237
569.166	603.661
569.294	604.881
569.422	610.941
569.550	611.814
569.678	617.890
569.806	618.102
569.935	613.576
570.063	612.237
570.191	623.331
570.319	614.534
570.447	612.763
570.575	620.788
570.703	623.424
570.831	623.941
570.960	623.788
571.088	625.856
571.216	624.220
571.344	627.432
571.472	626.237
571.600	633.915
571.728	626.890
571.856	636.466
571.985	635.127
572.113	634.729
572.241	632.780
572.369	638.585
572.497	637.195
572.625	641.390
572.753	636.161
572.881	638.492
573.010	634.653
573.138	645.195
573.266	642.441
573.394	641.593
573.522	643.788
573.650	638.127
573.778	640.466
573.906	637.746
574.035	642.627
574.163	640.483
574.291	646.136
574.419	645.195
574.547	642.271
574.675	645.602
574.803	641.034
574.931	642.280
575.060	650.898
575.188	640.127
575.316	646.068
575.444	642.585
575.572	642.992
575.700	642.246
575.828	644.585
575.956	648.161
576.085	647.102
576.213	653.483
576.341	638.992
576.469	648.746
576.597	641.517
576.725	637.619
576.853	639.636
576.981	642.051
577.110	647.415
577.238	646.017
577.366	641.449
577.494	635.186
577.622	643.483
577.750	640.542
577.878	642.093
578.006	646.712
578.135	645.576
578.263	644.517
578.391	650.517
578.519	639.686
578.647	639.814
578.775	640.678
578.903	637.415
579.031	645.814
579.160	641.483
579.288	647.076
579.416	642.602
579.544	638.381
579.672	648.746
579.800	644.263
579.928	647.551
580.056	640.856
580.185	646.280
580.313	642.432
580.441	644.449
580.569	642.958
580.697	643.907
580.825	645.881
580.953	649.305
581.081	647.661
581.210	650.475
581.338	651.542
581.466	656.246
581.594	658.297
581.722	655.161
581.850	646.746
581.978	653.788
582.106	654.780
582.235	654.475
582.363	656.339
582.491	660.068
582.619	650.458
582.747	658.712
582.875	664.525
583.003	663.025
583.131	663.178
583.260	667.915
583.388	668.847
583.516	677.347
583.644	677.771
583.772	675.017
583.900	681.127
584.028	682.169
584.156	674.093
584.285	681.212
584.413	678.373
584.541	687.610
584.669	688.780
584.797	687.771
584.925	691.364
585.053	692.483
585.181	691.729
585.310	692.127
585.438	689.890
585.566	694.551
585.694	700.415
585.822	710.339
585.950	704.695
586.078	707.695
586.206	705.136
586.335	706.364
586.463	707.305
586.591	716.644
586.719	713.898
586.847	712.136
586.975	716.525
587.103	721.873
587.231	711.144
587.360	718.958
587.488	724.432
587.616	718.602
587.744	729.568
587.872	712.619
588.000	723.475
588.128	725.559
588.256	724.653
588.385	729.153
588.513	729.297
588.641	726.653
588.769	731.381
588.897	731.000
589.025	730.483
589.153	730.042
589.281	723.873
589.410	728.076
589.538	729.492
589.666	732.661
589.794	729.271
589.922	734.873
590.050	735.483
590.178	727.102
590.306	734.449
590.435	728.186
590.563	728.153
590.691	738.941
590.819	729.534
590.947	743.432
591.075	728.144
591.203	731.720
591.331	744.051
591.460	743.737
591.588	730.169
591.716	742.297
591.844	739.559
591.972	748.008
592.100	742.169
592.228	739.856
592.356	745.186
592.485	742.559
592.613	741.051
592.741	750.619
592.869	746.703
592.997	749.873
593.125	753.805
593.253	756.585
593.381	752.297
593.510	751.864
593.638	756.720
593.766	750.000
593.894	752.975
594.022	752.271
594.150	758.466
594.278	766.212
594.406	761.169
594.535	763.407
594.663	769.314
594.791	766.619
594.919	766.042
595.047	777.814
595.175	767.195
595.303	767.229
595.431	766.542
595.560	771.602
595.688	777.186
595.816	764.949
595.944	785.373
596.072	782.093
596.200	775.280
596.328	779.441
596.456	780.076
596.585	780.949
596.713	789.059
596.841	777.424
596.969	787.508
597.097	792.068
597.225	789.042
597.353	796.780
597.481	794.839
597.610	799.856
597.738	791.331
597.866	792.288
597.994	800.797
598.122	809.000
598.250	804.610
598.378	803.814
598.506	801.102
598.635	802.186
598.763	808.000
598.891	804.381
599.019	808.576
599.147	803.788
599.275	807.805
599.403	811.661
599.531	808.322
599.660	808.161
599.788	821.424
599.916	814.432
600.044	818.712
600.172	819.856
600.300	825.008
600.428	820.373
600.556	822.686
600.685	828.068
600.813	831.551
600.941	830.703
601.069	830.314
601.197	837.941
601.325	832.246
601.453	837.144
601.581	837.653
601.710	838.593
601.838	848.297
601.966	843.678
602.094	844.517
602.222	841.924
602.350	840.780
602.478	848.958
602.606	859.169
602.735	853.051
602.863	863.475
602.991	862.407
603.119	860.127
603.247	866.500
603.375	863.593
603.503	866.653
603.631	869.119
603.760	872.000
603.888	874.220
604.016	877.127
604.144	870.110
604.272	879.992
604.400	884.364
604.528	877.890
604.656	881.178
604.785	886.347
604.913	897.008
605.041	890.475
605.169	894.381
605.297	892.492
605.425	896.331
605.553	897.992
605.681	893.695
605.810	898.237
605.938	902.559
606.066	899.390
606.194	901.280
606.322	896.754
606.450	910.076
606.578	913.449
606.706	911.856
606.835	911.653
606.963	915.212
607.091	910.839
607.219	915.559
607.347	913.585
607.475	922.398
607.603	917.178
607.731	915.000
607.860	914.424
607.988	914.695
608.116	911.314
608.244	919.068
608.372	912.017
608.500	921.653
608.628	916.873
608.756	915.407
608.885	922.254
609.013	928.805
609.141	922.059
609.269	920.254
609.397	920.576
609.525	921.390
609.653	919.610
609.781	922.797
609.910	917.178
610.038	917.432
610.166	915.186
610.294	919.246
610.422	927.381
610.550	921.390
610.678	921.992
610.806	919.932
610.935	921.653
611.063	920.085
611.191	914.288
611.319	933.017
611.447	922.441
611.575	918.339
611.703	921.280
611.831	923.424
611.960	921.339
612.088	923.263
612.216	922.602
612.344	930.602
612.472	916.068
612.600	926.729
612.728	921.373
612.856	928.805
612.985	923.449
613.113	920.619
613.241	930.136
613.369	923.042
613.497	931.576
613.625	926.636
613.753	930.847
613.881	923.763
614.010	929.983
614.138	930.983
614.266	920.847
614.394	930.915
614.522	924.805
614.650	936.695
614.778	930.941
614.906	943.119
615.035	933.703
615.163	927.390
615.291	939.110
615.419	938.746
615.547	932.356
615.675	943.339
615.803	928.847
615.931	949.763
616.060	938.203
616.188	945.186
616.316	943.602
616.444	946.119
616.572	946.229
616.700	942.627
616.828	954.737
616.956	950.068
617.085	954.288
617.213	956.271
617.341	946.263
617.469	954.729
617.597	967.390
617.725	956.373
617.853	955.907
617.981	966.500
618.110	965.559
618.238	953.653
618.366	973.475
618.494	974.271
618.622	973.373
618.750	978.178
618.878	973.788
619.006	983.212
619.135	983.119
619.263	978.381
619.391	978.271
619.519	981.178
619.647	991.975
619.775	985.229
619.903	998.322
620.031	989.780
620.160	998.017
620.288	992.220
620.416	996.898
620.544	1006.847
620.672	1005.025
620.800	1003.856
620.928	1007.424
621.056	1004.220
621.185	1007.347
621.313	1015.025
621.441	1010.958
621.569	1020.593
621.697	1011.695
621.825	1037.492
621.953	1017.263
622.081	1030.551
622.210	1017.822
622.338	1027.076
622.466	1029.059
622.594	1037.737
622.722	1033.839
622.850	1040.212
622.978	1038.229
623.106	1026.805
623.235	1038.712
623.363	1038.873
623.491	1042.593
623.619	1032.559
623.747	1037.492
623.875	1039.763
624.003	1034.636
624.131	1040.068
624.260	1033.585
624.388	1045.653
624.516	1051.212
624.644	1036.737
624.772	1050.390
624.900	1046.127
625.028	1033.695
625.156	1060.364
625.285	1041.881
625.413	1050.627
625.541	1043.449
625.669	1048.492
625.797	1054.593
625.925	1050.729
626.053	1049.042
626.181	1059.322
626.310	1056.127
626.438	1061.127
626.566	1051.347
626.694	1049.686
626.822	1052.314
626.950	1048.797
627.078	1057.669
627.206	1050.136
627.335	1062.424
627.463	1048.585
627.591	1057.602
627.719	1052.881
627.847	1063.619
627.975	1059.695
628.103	1057.169
628.231	1053.975
628.360	1053.822
628.488	1062.186
628.616	1064.441
628.744	1053.746
628.872	1054.856
629.000	1057.983
629.128	1056.534
629.256	1071.881
629.385	1060.203
629.513	1056.907
629.641	1074.254
629.769	1052.271
629.897	1065.415
630.025	1055.127
630.153	1066.407
630.281	1068.364
630.410	1057.415
630.538	1069.992
630.666	1061.169
630.794	1067.958
630.922	1057.847
631.050	1060.695
631.178	1057.339
631.306	1059.093
631.435	1068.941
631.563	1061.373
631.691	1049.788
631.819	1066.059
631.947	1059.814
632.075	1069.034
632.203	1069.331
632.331	1060.322
632.460	1060.627
632.588	1064.856
632.716	1058.288
632.844	1068.102
632.972	1067.000
633.100	1071.008
633.228	1063.178
633.356	1067.992
633.485	1071.500
633.613	1067.178
633.741	1063.339
633.869	1061.441
633.997	1068.568
634.125	1063.517
634.253	1059.102
634.381	1055.373
634.510	1076.839
634.638	1052.483
634.766	1064.212
634.894	1069.398
635.022	1057.161
635.150	1054.890
635.278	1066.712
635.406	1053.356
635.535	1054.169
635.663	1062.924
635.791	1060.339
635.919	1060.415
636.047	1057.220
636.175	1047.076
636.303	1056.212
636.431	1054.966
636.560	1064.534
636.688	1068.975
636.816	1056.542
636.944	1055.737
637.072	1059.932
637.200	1050.788
637.328	1046.017
637.456	1057.873
637.585	1045.737
637.713	1064.720
637.841	1050.822
637.969	1060.763
638.097	1052.975
638.225	1055.398
638.353	1055.627
638.481	1057.195
638.610	1065.093
638.738	1054.847
638.866	1048.754
638.994	1054.568
639.122	1058.483
639.250	1055.780
639.378	1062.237
639.506	1050.525
639.635	1055.441
639.763	1041.288
639.891	1062.076
640.019	1057.017
640.147	1060.186
640.275	1052.619
640.403	1062.008
640.531	1047.856
640.660	1063.025
640.788	1066.873
640.916	1060.263
641.044	1068.322
641.172	1059.314
641.300	1069.992
641.428	1069.678
641.556	1073.602
641.685	1055.958
641.813	1067.661
641.941	1062.619
642.069	1066.975
642.197	1067.992
642.325	1059.602
642.453	1065.466
642.581	1075.373
642.710	1060.814
642.838	1068.712
642.966	1071.136
643.094	1067.695
643.222	1073.000
643.350	1062.229
643.478	1071.186
643.606	1079.483
643.735	1071.644
643.863	1062.898
643.991	1077.771
644.119	1076.153
644.247	1078.703
644.375	1077.856
644.503	1083.025
644.631	1069.212
644.760	1072.390
644.888	1081.051
645.016	1080.466
645.144	1092.754
645.272	1079.576
645.400	1070.254
645.528	1087.220
645.656	1072.771
645.785	1075.263
645.913	1074.220
646.041	1077.127
646.169	1065.822
646.297	1071.102
646.425	1071.212
646.553	1066.127
646.681	1068.941
646.810	1074.144
646.938	1081.661
647.066	1058.983
647.194	1070.644
647.322	1065.831
647.450	1061.932
647.578	1069.415
647.706	1067.941
647.835	1070.847
647.963	1057.280
648.091	1073.678
648.219	1054.203
648.347	1059.220
648.475	1060.339
648.603	1060.686
648.731	1055.712
648.860	1056.661
648.988	1059.966
649.116	1060.619
649.244	1051.500
649.372	1041.542
649.500	1039.924
649.628	1048.144
649.756	1042.958
649.885	1027.525
650.013	1039.958
650.141	1035.492
650.269	1032.525
650.397	1031.288
650.525	1028.025
650.653	1029.051
650.781	1025.932
650.910	1025.398
651.038	1023.720
651.166	1025.000
651.294	1014.805
651.422	1010.525
651.550	1003.288
651.678	997.788
651.806	1006.017
651.935	1006.364
652.063	1000.780
652.191	998.542
652.319	1007.585
652.447	1001.958
652.575	993.051
652.703	984.559
652.831	980.508
652.960	988.203
653.088	988.119
653.216	982.144
653.344	984.373
653.472	986.110
653.600	979.890
653.728	974.186
653.856	965.229
653.985	978.941
654.113	976.305
654.241	969.441
654.369	972.169
654.497	976.924
654.625	965.661
654.753	966.144
654.881	972.669
655.010	973.644
655.138	960.763
655.266	964.864
655.394	956.458
655.522	959.178
655.650	948.178
655.778	950.347
655.906	954.568
656.035	958.754
656.163	962.008
656.291	959.941
656.419	957.932
656.547	970.814
656.675	944.932
656.803	952.712
656.931	953.076
657.060	956.534
657.188	949.712
657.316	949.237
657.444	949.797
657.572	951.119
657.700	943.864
657.828	943.669
657.956	944.127
658.085	952.237
658.213	934.610
658.341	945.449
658.469	942.669
658.597	937.356
658.725	945.737
658.853	935.297
658.981	926.076
659.110	936.110
659.238	930.678
659.366	935.966
659.494	927.534
659.622	927.102
659.750	935.864
659.878	933.551
660.006	929.644
660.135	923.754
660.263	923.814
660.391	924.153
660.519	926.483
660.647	922.941
660.775	919.314
660.903	918.966
661.031	910.492
661.160	918.771
661.288	925.517
661.416	923.229
661.544	919.602
661.672	914.559
661.800	917.000
661.928	917.127
662.056	906.636
662.185	909.754
662.313	909.051
662.441	911.856
662.569	909.415
662.697	905.864
662.825	910.593
662.953	903.093
663.081	896.678
663.210	901.814
663.338	907.475
663.466	896.763
663.594	898.661
663.722	889.381
663.850	881.941
663.978	893.780
664.106	898.771
664.235	901.644
664.363	894.093
664.491	881.034
664.619	888.576
664.747	890.636
664.875	883.669
665.003	878.525
665.131	892.195
665.260	882.186
665.388	875.932
665.516	873.559
665.644	871.025
665.772	877.864
665.900	871.720
666.028	880.517
666.156	875.305
666.285	872.695
666.413	874.797
666.541	869.186
666.669	875.381
666.797	867.720
666.925	864.178
667.053	881.398
667.181	868.966
667.310	856.534
667.438	861.458
667.566	851.932
667.694	860.008
667.822	854.186
667.950	857.263
668.078	848.686
668.206	856.475
668.335	861.669
668.463	856.441
668.591	844.780
668.719	845.186
668.847	844.212
668.975	842.178
669.103	852.169
669.231	846.907
669.360	846.746
669.488	842.542
669.616	835.839
669.744	839.636
669.872	833.822
670.000	843.619
670.128	830.068
670.256	840.432
670.385	831.136
670.513	842.576
670.641	822.110
670.769	828.288
670.897	827.161
671.025	825.873
671.153	833.127
671.281	828.551
671.410	823.873
671.538	822.831
671.666	825.729
671.794	811.619
671.922	819.415
672.050	814.093
672.178	814.941
672.306	808.958
672.435	810.398
672.563	813.500
672.691	805.542
672.819	808.110
672.947	803.822
673.075	799.432
673.203	794.831
673.331	795.746
673.460	799.093
673.588	793.059
673.716	791.992
673.844	789.814
673.972	792.568
674.100	789.381
674.228	787.797
674.356	782.161
674.485	782.695
674.613	772.059
674.741	779.483
674.869	774.288
674.997	765.754
675.125	763.263
675.253	766.839
675.381	764.568
675.510	759.102
675.638	752.169
675.766	762.585
675.894	745.008
676.022	755.042
676.150	754.924
676.278	758.975
676.406	757.263
676.535	744.610
676.663	749.831
676.791	740.958
676.919	739.127
677.047	744.593
677.175	732.017
677.303	732.653
677.431	738.297
677.560	722.797
677.688	731.059
677.816	723.780
677.944	725.034
678.072	722.195
678.200	725.703
678.328	719.407
678.456	717.669
678.585	719.271
678.713	710.424
678.841	710.178
678.969	712.771
679.097	707.881
679.225	705.907
679.353	711.000
679.481	694.771
679.610	703.847
679.738	693.695
679.866	707.203
679.994	690.000
680.122	697.534
680.250	691.831
680.378	686.220
680.506	688.220
680.635	689.712
680.763	679.746
680.891	681.653
681.019	681.602
681.147	679.271
681.275	674.576
681.403	668.373
681.531	679.525
681.660	665.983
681.788	671.619
681.916	663.432
682.044	677.669
682.172	662.695
682.300	656.373
682.428	658.110
682.556	660.720
682.685	661.195
682.813	662.492
682.941	650.381
683.069	649.720
683.197	650.653
683.325	641.712
683.453	652.288
683.581	643.966
683.710	641.873
683.838	641.153
683.966	643.246
684.094	636.280
684.222	642.949
684.350	635.008
684.478	643.254
684.606	640.102
684.735	630.932
684.863	634.373
684.991	630.136
685.119	629.102
685.247	623.898
685.375	623.110
685.503	630.669
685.631	627.576
685.760	623.119
685.888	620.263
686.016	621.686
686.144	622.669
686.272	619.729
686.400	625.517
686.528	614.314
686.656	618.661
686.785	610.449
686.913	619.008
687.041	606.568
687.169	615.347
687.297	614.017
687.425	606.669
687.553	611.034
687.681	608.212
687.810	605.305
687.938	599.229
688.066	607.627
688.194	601.551
688.322	606.636
688.450	599.220
688.578	604.898
688.706	602.161
688.835	593.941
688.963	593.983
689.091	599.864
689.219	588.136
689.347	591.958
689.475	590.814
689.603	589.983
689.731	592.941
689.860	588.924
689.988	587.678
690.116	582.373
690.244	587.763
690.372	580.737
690.500	580.720
690.628	583.856
690.756	579.339
690.885	577.619
691.013	577.729
691.141	579.449
691.269	580.475
691.397	575.932
691.525	574.814
691.653	578.322
691.781	575.941
691.910	567.568
692.038	569.542
692.166	566.220
692.294	565.517
692.422	566.864
692.550	566.000
692.678	559.669
692.806	564.153
692.935	565.373
693.063	556.492
693.191	554.136
693.319	550.992
693.447	557.322
693.575	551.593
693.703	545.983
693.831	547.695
693.960	549.729
694.088	546.941
694.216	539.356
694.344	540.593
694.472	546.025
694.600	537.407
694.728	532.356
694.856	535.593
694.985	538.822
695.113	531.822
695.241	531.763
695.369	534.839
695.497	531.856
695.625	531.322
695.753	530.576
695.881	525.025
696.010	524.432
696.138	525.331
696.266	517.085
696.394	523.559
696.522	511.898
696.650	515.941
696.778	511.381
696.906	515.856
697.035	513.924
697.163	501.636
697.291	511.424
697.419	502.890
697.547	501.695
697.675	501.695
697.803	502.839
697.931	502.059
698.060	499.415
698.188	493.941
698.316	497.669
698.444	488.992
698.572	493.924
698.700	492.703
698.828	489.661
698.956	481.924
699.085	483.347
699.213	477.144
699.341	479.000
699.469	481.068
699.597	479.966
699.725	475.220
699.853	470.127
699.981	477.153
700.110	467.576
700.238	470.254
700.366	466.551
700.494	469.364
700.622	467.085
700.750	461.534
700.878	467.364
701.006	460.424
701.135	461.246
701.263	458.398
701.391	454.534
701.519	460.500
701.647	452.703
701.775	457.864
701.903	450.127
702.031	450.237
702.160	449.483
702.288	449.271
702.416	444.305
702.544	444.551
702.672	444.907
702.800	445.551
702.928	439.644
703.056	442.161
703.185	436.924
703.313	436.415
703.441	435.534
703.569	438.754
703.697	439.051
703.825	432.254
703.953	435.119
704.081	431.627
704.210	428.992
704.338	428.746
704.466	423.712
704.594	423.932
704.722	420.864
704.850	423.958
704.978	418.737
705.106	427.161
705.235	412.458
705.363	415.669
705.491	417.619
705.619	420.576
705.747	417.780
705.875	414.890
706.003	412.653
706.131	416.771
706.260	408.881
706.388	408.695
706.516	405.975
706.644	404.051
706.772	408.110
706.900	394.297
707.028	400.203
707.156	397.068
707.285	399.195
707.413	398.186
707.541	394.271
707.669	394.297
707.797	393.305
707.925	390.059
708.053	392.771
708.181	391.517
708.310	391.669
708.438	389.195
708.566	384.653
708.694	386.508
708.822	387.144
708.950	385.186
709.078	380.068
709.206	379.339
709.335	381.661
709.463	378.339
709.591	375.280
709.719	374.788
709.847	371.839
709.975	371.314
710.103	373.390
710.231	367.314
710.360	364.610
710.488	360.407
710.616	364.763
710.744	362.076
710.872	363.220
711.000	361.576
711.128	360.441
711.256	356.568
711.385	355.949
711.513	354.297
711.641	355.042
711.769	355.975
711.897	353.559
712.025	351.025
712.153	349.025
712.281	352.492
712.410	346.780
712.538	347.881
712.666	346.237
712.794	345.525
712.922	346.746
713.050	340.610
713.178	338.373
713.306	341.754
713.435	341.398
713.563	337.398
713.691	337.068
713.819	337.754
713.947	334.551
714.075	337.839
714.203	333.729
714.331	330.195
714.460	331.051
714.588	327.797
714.716	327.975
714.844	325.576
714.972	321.627
715.100	323.203
715.228	327.898
715.356	324.932
715.485	324.356
715.613	317.076
715.741	319.873
715.869	319.669
715.997	322.500
716.125	316.042
716.253	320.754
716.381	317.856
716.510	314.898
716.638	316.619
716.766	309.407
716.894	318.356
717.022	309.517
717.150	312.025
717.278	309.864
717.406	310.458
717.535	306.271
717.663	307.805
717.791	310.847
717.919	304.754
718.047	304.305
718.175	305.610
718.303	302.424
718.431	302.576
718.560	303.602
718.688	298.525
718.816	296.992
718.944	297.924
719.072	300.805
719.200	297.500
719.328	296.568
719.456	295.780
719.585	297.822
719.713	295.017
719.841	293.610
719.969	292.449
720.097	289.144
720.225	291.271
720.353	289.246
720.481	289.864
720.610	287.153
720.738	286.458
720.866	287.229
720.994	285.839
721.122	288.288
721.250	286.475
721.378	282.136
721.506	279.322
721.635	280.720
721.763	278.797
721.891	281.958
722.019	281.364
722.147	278.873
722.275	277.449
722.403	275.407
722.531	275.381
722.660	272.517
722.788	273.254
722.916	274.525
723.044	270.068
723.172	273.229
723.300	268.314
723.428	272.432
723.556	269.364
723.685	269.093
723.813	270.314
723.941	267.729
724.069	267.534
724.197	263.992
724.325	264.500
724.453	259.178
724.581	263.339
724.710	258.119
724.838	264.576
724.966	259.280
725.094	259.136
725.222	256.102
725.350	256.585
725.478	257.246
725.606	256.780
725.735	252.797
725.863	253.288
725.991	252.602
726.119	254.085
726.247	251.373
726.375	252.602
726.503	251.212
726.631	246.271
726.760	248.364
726.888	250.356
727.016	241.475
727.144	247.195
727.272	245.220
727.400	244.415
727.528	242.585
727.656	241.339
727.785	240.517
727.913	243.441
728.041	241.203
728.169	242.619
728.297	237.924
728.425	237.441
728.553	237.203
728.681	237.144
728.810	235.068
728.938	234.805
729.066	235.695
729.194	233.424
729.322	233.110
729.450	230.915
729.578	231.153
729.706	228.661
729.835	231.424
729.963	229.966
730.091	228.203
730.219	227.398
730.347	225.534
730.475	225.568
730.603	224.686
730.731	225.500
730.860	223.398
730.988	225.814
731.116	223.720
731.244	222.771
731.372	223.144
731.500	219.695
731.628	220.398
731.756	220.517
731.885	217.178
732.013	219.686
732.141	217.831
732.269	217.695
732.397	216.814
732.525	215.271
732.653	215.390
732.781	216.483
732.910	215.492
733.038	211.551
733.166	213.059
733.294	218.254
733.422	208.525
733.550	213.890
733.678	212.568
733.806	212.585
733.935	214.475
734.063	209.949
734.191	209.678
734.319	210.788
734.447	208.271
734.575	206.712
734.703	206.653
734.831	207.746
734.960	205.534
735.088	205.966
735.216	203.678
735.344	206.559
735.472	203.017
735.600	204.517
735.728	202.076
735.856	201.568
735.985	200.186
736.113	202.127
736.241	199.017
736.369	203.907
736.497	202.068
736.625	203.678
736.753	200.051
736.881	196.746
737.010	200.068
737.138	199.322
737.266	201.424
737.394	196.754
737.522	197.008
737.650	195.771
737.778	198.373
737.906	194.822
738.035	195.127
738.163	192.441
738.291	195.220
738.419	192.661
738.547	194.119
738.675	192.373
738.803	190.136
738.931	190.822
739.060	192.559
739.188	190.153
739.316	189.271
739.444	189.949
739.572	187.966
739.700	188.568
739.828	187.890
739.956	187.525
740.085	188.593
740.213	186.432
740.341	184.237
740.469	186.958
740.597	186.220
740.725	184.593
740.853	183.712
740.981	186.017
741.110	183.695
741.238	182.924
741.366	180.788
741.494	183.237
741.622	182.102
741.750	180.864
741.878	183.653
742.006	180.331
742.135	179.703
742.263	177.729
742.391	177.483
742.519	180.585
742.647	179.356
742.775	181.280
742.903	178.610
743.031	178.534
743.160	176.542
743.288	177.856
743.416	174.695
743.544	174.220
743.672	173.585
743.800	175.364
743.928	172.669
744.056	173.805
744.185	174.008
744.313	174.661
744.441	175.364
744.569	176.644
744.697	173.373
744.825	173.373
744.953	172.034
745.081	170.771
745.210	171.322
745.338	171.780
745.466	170.847
745.594	169.186
745.722	169.492
745.850	167.983
745.978	171.119
746.106	169.992
746.235	168.136
746.363	172.051
746.491	168.831
746.619	167.881
746.747	166.949
746.875	167.966
747.003	167.941
747.131	165.034
747.260	165.966
747.388	167.966
747.516	165.873
747.644	162.466
747.772	165.305
747.900	166.966
748.028	163.932
748.156	160.805
748.285	164.356
748.413	161.169
748.541	162.458
748.669	162.042
748.797	160.153
748.925	159.763
749.053	160.093
749.181	160.008
749.310	160.839
749.438	160.059
749.566	159.347
749.694	158.568
749.822	160.229
749.950	159.966
750.078	157.822
750.206	159.025
750.335	157.678
750.463	158.780
750.591	158.381
750.719	157.432
750.847	155.720
750.975	155.025
751.103	154.720
751.231	153.975
751.360	156.263
751.488	154.381
751.616	155.093
751.744	155.924
751.872	155.814
752.000	154.568
752.128	153.856
752.256	155.644
752.385	152.525
752.513	152.288
752.641	151.229
752.769	152.881
752.897	153.814
753.025	150.686
753.153	154.017
753.281	150.559
753.410	150.881
753.538	148.449
753.666	151.178
753.794	151.034
753.922	150.398
754.050	150.280
754.178	150.331
754.306	149.153
754.435	147.636
754.563	150.322
754.691	148.797
754.819	148.932
754.947	148.568
755.075	149.780
755.203	149.390
755.331	147.263
755.460	145.102
755.588	146.856
755.716	143.983
755.844	145.008
755.972	146.686
756.100	146.686
756.228	146.449
756.356	144.246
756.485	146.314
756.613	145.288
756.741	145.331
756.869	145.661
756.997	144.093
757.125	145.373
757.253	142.712
757.381	142.729
757.510	143.856
757.638	144.254
757.766	142.144
757.894	141.525
758.022	141.992
758.150	141.246
758.278	142.890
758.406	141.729
758.535	143.508
758.663	142.347
758.791	142.025
758.919	140.059
759.047	139.246
759.175	140.593
759.303	137.568
759.431	138.602
759.560	137.288
759.688	140.381
759.816	139.975
759.944	141.068
760.072	137.763
760.200	137.720
760.328	140.890
760.456	139.042
760.585	139.517
760.713	138.839
760.841	139.373
760.969	138.407
761.097	137.703
761.225	139.381
761.353	138.686
761.481	137.144
761.610	137.068
761.738	136.678
761.866	139.169
761.994	136.339
762.122	136.102
762.250	135.432
762.378	134.034
762.506	135.415
762.635	134.805
762.763	134.678
762.891	136.229
763.019	134.788
763.147	135.822
763.275	133.983
763.403	134.958
763.531	132.475
763.660	133.153
763.788	131.881
763.916	133.254
764.044	133.119
764.172	134.322
764.300	131.619
764.428	131.864
764.556	133.966
764.685	131.856
764.813	131.322
764.941	131.975
765.069	132.008
765.197	131.331
765.325	130.381
765.453	129.805
765.581	132.797
765.710	130.619
765.838	129.949
765.966	130.788
766.094	130.466
766.222	129.356
766.350	128.619
766.478	129.551
766.606	130.610
766.735	128.263
766.863	127.661
766.991	128.568
767.119	130.280
767.247	126.949
767.375	128.763
767.503	128.814
767.631	128.924
767.760	128.288
767.888	127.331
768.016	127.415
768.144	128.000
768.272	128.949
768.400	128.161
768.528	127.339
768.656	126.186
768.785	126.864
768.913	125.983
769.041	126.551
769.169	126.161
769.297	126.271
769.425	124.237
769.553	126.500
769.681	125.517
769.810	126.186
769.938	126.051
770.066	124.466
770.194	125.390
770.322	126.703
770.450	125.975
770.578	125.008
770.706	124.356
770.835	123.237
770.963	125.280
771.091	123.034
771.219	124.347
771.347	125.246
771.475	123.288
771.603	122.407
771.731	123.864
771.860	125.212
771.988	123.992
772.116	124.678
772.244	124.356
772.372	123.805
772.500	124.373
772.628	124.085
772.756	122.390
772.885	123.110
773.013	122.949
773.141	121.000
773.269	122.246
773.397	123.093
773.525	122.500
773.653	122.110
773.781	121.788
773.910	121.568
774.038	120.119
774.166	122.466
774.294	122.280
774.422	120.263
774.550	121.856
774.678	120.831
774.806	120.534
774.935	121.322
775.063	120.212
775.191	121.068
775.319	120.483
775.447	120.390
775.575	120.542
775.703	119.424
775.831	119.093
775.960	118.788
776.088	121.254
776.216	119.559
776.344	120.000
776.472	120.432
776.600	119.220
776.728	119.314
776.856	118.695
776.985	117.847
777.113	119.093
777.241	119.576
777.369	118.339
777.497	119.034
777.625	117.110
777.753	118.890
777.881	120.017
778.010	119.288
778.138	116.983
778.266	116.958
778.394	117.347
778.522	118.898
778.650	117.661
778.778	116.042
778.906	116.771
779.035	117.653
779.163	116.856
779.291	117.042
779.419	118.254
779.547	118.407
779.675	117.602
779.803	116.831
779.931	117.763
780.060	116.458
780.188	116.661
780.316	117.203
780.444	118.449
780.572	115.568
780.700	118.364
780.828	116.466
780.956	116.924
781.085	116.559
781.213	115.220
781.341	117.017
781.469	116.975
781.597	116.525
781.725	116.000
781.853	116.407
781.981	114.797
782.110	116.449
782.238	114.763
782.366	116.059
782.494	115.492
782.622	116.864
782.750	115.085
782.878	116.127
783.006	116.144
783.135	114.169
783.263	114.203
783.391	114.678
783.519	114.314
783.647	113.432
783.775	114.017
783.903	115.025
784.031	114.534
784.160	115.331
784.288	114.831
784.416	114.619
784.544	113.347
784.672	112.881
784.800	113.144
784.928	113.822
785.056	112.144
785.185	114.254
785.313	113.314
785.441	112.602
785.569	113.305
785.697	113.593
785.825	113.288
785.953	112.771
786.081	113.288
786.210	112.627
786.338	113.407
786.466	112.322
786.594	112.585
786.722	112.610
786.850	112.822
786.978	112.432
787.106	111.331
787.235	113.593
787.363	113.271
787.491	113.136
787.619	111.907
787.747	113.203
787.875	112.712
788.003	112.559
788.131	110.890
788.260	111.458
788.388	112.602
788.516	111.636
788.644	111.466
788.772	111.305
788.900	110.814
789.028	111.339
789.156	111.881
789.285	110.966
789.413	110.983
789.541	111.703
789.669	110.458
789.797	111.068
789.925	110.551
790.053	112.178
790.181	112.195
790.310	110.636
790.438	110.407
790.566	109.983
790.694	111.186
790.822	111.119
790.950	112.390
791.078	110.602
791.206	110.568
791.335	110.814
791.463	109.797
791.591	110.280
791.719	111.017
791.847	109.958
791.975	110.127
792.103	109.534
792.231	110.814
792.360	111.042
792.488	110.788
792.616	111.763
792.744	109.915
792.872	109.576
793.000	109.831
793.128	110.136
793.256	110.424
793.385	110.653
793.513	109.831
793.641	110.271
793.769	109.695
793.897	109.110
794.025	109.856
794.153	110.703
794.281	110.169
794.410	110.127
794.538	109.805
794.666	109.847
794.794	108.576
794.922	109.720
795.050	108.771
795.178	109.508
795.306	108.424
795.435	108.025
795.563	109.195
795.691	109.034
795.819	108.771
795.947	108.610
796.075	109.864
796.203	109.025
796.331	108.475
796.460	108.627
796.588	108.746
796.716	108.653
796.844	109.153
796.972	109.729
797.100	108.042
797.228	109.059
797.356	110.254
797.485	108.449
797.613	108.822
797.741	108.737
797.869	109.119
797.997	108.941
798.125	108.695
798.253	107.975
798.381	109.246
798.510	108.576
798.638	107.847
798.766	108.788
798.894	107.153
799.022	108.653
799.150	108.441
799.278	107.059
799.406	109.051
799.535	108.780
799.663	108.898
799.791	107.119
799.919	108.966
800.047	108.814
800.175	108.695
800.303	107.458
800.431	107.737
800.560	108.059
800.688	107.941
800.816	107.390
800.944	107.212
801.072	109.331
801.200	108.144
801.328	108.364
801.456	107.492
801.585	108.424
801.713	107.890
801.841	108.263
801.969	107.873
802.097	107.492
802.225	107.627
802.353	108.059
802.481	107.542
802.610	108.136
802.738	107.492
802.866	108.195
802.994	107.051
803.122	107.941
803.250	107.508
803.378	107.212
803.506	108.059
803.635	108.915
803.763	107.797
803.891	107.746
804.019	107.263
804.147	107.729
804.275	106.644
804.403	106.873
804.531	106.653
804.660	107.424
804.788	107.763
804.916	106.407
805.044	106.720
805.172	107.339
805.300	106.331
805.428	107.263
805.556	107.339
805.685	107.839
805.813	108.025
805.941	106.008
806.069	107.568
806.197	107.669
806.325	106.729
806.453	108.347
806.581	106.644
806.710	106.585
806.838	105.915
806.966	106.983
807.094	107.178
807.222	107.144
807.350	107.847
807.478	107.508
807.606	105.890
807.735	107.364
807.863	107.678
807.991	106.297
808.119	106.763
808.247	106.229
808.375	107.466
808.503	106.314
808.631	107.093
808.760	106.941
808.888	105.992
809.016	106.864
809.144	107.822
809.272	107.636
809.400	107.305
809.528	106.907
809.656	106.119
809.785	105.407
809.913	106.610
810.041	106.381
810.169	105.475
810.297	106.653
810.425	106.339
810.553	105.754
810.681	107.322
810.810	106.220
810.938	107.534
811.066	105.144
811.194	105.831
811.322	105.381
811.450	106.042
811.578	106.822
811.706	106.136
811.835	106.297
811.963	105.661
812.091	106.458
812.219	105.831
812.347	106.212
812.475	106.669
812.603	106.271
812.731	104.525
812.860	107.356
812.988	106.483
813.116	105.653
813.244	105.992
813.372	105.958
813.500	106.025
813.628	106.864
813.756	105.271
813.885	105.932
814.013	105.661
814.141	106.169
814.269	106.153
814.397	106.085
814.525	106.449
814.653	106.568
814.781	106.085
814.910	106.398
815.038	106.534
815.166	107.237
815.294	105.975
815.422	107.669
815.550	105.153
815.678	104.873
815.806	105.881
815.935	105.076
816.063	105.517
816.191	106.068
816.319	105.932
816.447	106.212
816.575	105.881
816.703	106.347
816.831	106.407
816.960	106.763
817.088	105.763
817.216	105.068
817.344	106.212
817.472	106.610
817.600	105.898
817.728	105.356
817.856	106.407
817.985	104.703
818.113	105.551
818.241	106.195
818.369	105.339
818.497	106.093
818.625	106.025
818.753	105.127
818.881	106.381
819.010	105.492
819.138	104.932
819.266	105.390
819.394	105.542
819.522	103.881
819.650	105.890
819.778	104.466
819.906	105.441
820.035	105.593
820.163	105.169
820.291	105.068
820.419	104.780
820.547	105.941
820.675	104.576
820.803	105.271
820.931	105.729
821.060	103.992
821.188	105.424
821.316	104.720
821.444	105.373
821.572	105.220
821.700	104.983
821.828	106.025
821.956	105.280
822.085	104.559
822.213	105.949
822.341	105.195
822.469	105.000
822.597	104.195
822.725	104.551
822.853	104.559
822.981	104.703
823.110	105.653
823.238	103.127
823.366	105.449
823.494	103.873
823.622	103.992
823.750	104.763
823.878	103.568
824.006	105.602
824.135	104.788
824.263	105.169
824.391	104.483
824.519	104.746
824.647	105.314
824.775	104.864
824.903	106.076
825.031	106.085
825.160	105.263
825.288	104.780
825.416	104.907
825.544	104.958
825.672	105.500
825.800	105.051
825.928	105.271
826.056	104.508
826.185	104.466
826.313	105.364
826.441	105.424
826.569	104.771
826.697	104.958
826.825	105.017
826.953	105.949
827.081	103.322
827.210	104.966
827.338	103.797
827.466	103.636
827.594	105.220
827.722	104.814
827.850	105.144
827.978	104.110
828.106	104.966
828.235	106.254
828.363	104.932
828.491	103.856
828.619	103.839
828.747	105.076
828.875	103.949
829.003	105.169
829.131	105.780
829.260	105.636
829.388	104.186
829.516	105.059
829.644	104.178
829.772	105.297
829.900	104.203
830.028	105.508
830.156	104.669
830.285	104.831
830.413	104.907
830.541	104.339
830.669	103.483
830.797	103.559
830.925	104.737
831.053	104.169
831.181	104.288
831.310	105.703
831.438	104.288
831.566	104.958
831.694	104.136
831.822	103.958
831.950	104.076
832.078	104.890
832.206	104.017
832.335	103.729
832.463	104.958
832.591	104.398
832.719	103.958
832.847	104.593
832.975	103.763
833.103	104.602
833.231	104.627
833.360	105.322
833.488	104.458
833.616	104.093
833.744	103.653
833.872	104.059
834.000	105.322
834.128	104.992
834.256	104.492
834.385	103.890
834.513	105.254
834.641	103.161
834.769	103.797
834.897	105.153
835.025	102.958
835.153	103.449
835.281	103.839
835.410	103.686
835.538	104.881
835.666	104.314
835.794	103.737
835.922	104.907
836.050	104.441
836.178	103.805
836.306	104.449
836.435	104.220
836.563	103.780
836.691	104.627
836.819	105.195
836.947	103.271
837.075	103.763
837.203	103.771
837.331	104.212
837.460	104.873
837.588	103.983
837.716	104.441
837.844	104.305
837.972	103.619
838.100	104.458
838.228	103.839
838.356	103.466
838.485	101.831
838.613	103.746
838.741	104.576
838.869	104.254
838.997	104.771
839.125	102.508
839.253	102.822
839.381	103.873
839.510	103.534
839.638	103.932
839.766	103.551
839.894	103.966
840.022	103.644
840.150	104.169
840.278	103.636
840.406	104.873
840.535	104.602
840.663	102.356
840.791	103.076
840.919	103.534
841.047	103.517
841.175	104.364
841.303	104.110
841.431	103.881
841.560	104.042
841.688	104.093
841.816	104.229
841.944	102.907
842.072	103.627
842.200	103.805
842.328	103.983
842.456	102.424
842.585	104.314
842.713	103.576
842.841	103.780
842.969	104.093
843.097	103.602
843.225	103.593
843.353	103.576
843.481	103.517
843.610	103.161
843.738	102.881
843.866	103.381
