70-70-0_at_679.99nm_cut_at_1286.00Y_01.dat
24.01.2024
11:25:13
cut middle at Y: 1286.00
top cursor: 1345 down cursor: 1227 mean of: 118 lines , 2560 datapoints
wavelength(nm)	intensity[arb. units]
515.994	417.636
516.122	399.390
516.250	396.551
516.378	391.636
516.506	393.169
516.635	395.610
516.763	398.458
516.891	402.034
517.019	400.576
517.147	396.542
517.275	399.246
517.403	400.975
517.531	400.280
517.660	396.093
517.788	400.144
517.916	405.186
518.044	402.475
518.172	404.864
518.300	406.500
518.428	401.322
518.556	407.390
518.685	408.890
518.813	405.034
518.941	412.831
519.069	412.636
519.197	404.966
519.325	411.814
519.453	412.746
519.581	416.483
519.710	412.034
519.838	415.678
519.966	411.966
520.094	413.500
520.222	418.373
520.350	418.847
520.478	423.347
520.606	420.153
520.735	423.347
520.863	422.568
520.991	429.458
521.119	427.271
521.247	433.517
521.375	426.085
521.503	428.254
521.631	432.169
521.760	431.941
521.888	433.508
522.016	436.017
522.144	431.737
522.272	439.847
522.400	438.508
522.528	444.008
522.656	440.924
522.785	446.712
522.913	442.525
523.041	440.847
523.169	441.237
523.297	442.195
523.425	443.847
523.553	442.331
523.681	444.941
523.810	451.602
523.938	452.025
524.066	449.525
524.194	450.992
524.322	453.831
524.450	447.568
524.578	445.212
524.706	453.508
524.835	453.661
524.963	449.153
525.091	450.966
525.219	449.458
525.347	451.229
525.475	455.441
525.603	450.508
525.731	456.508
525.860	457.059
525.988	450.280
526.116	452.661
526.244	457.864
526.372	447.364
526.500	455.263
526.628	456.797
526.756	454.449
526.885	461.415
527.013	454.322
527.141	458.686
527.269	453.441
527.397	458.297
527.525	461.551
527.653	460.576
527.781	459.500
527.910	465.364
528.038	465.051
528.166	467.169
528.294	463.203
528.422	460.178
528.550	469.229
528.678	466.254
528.806	473.636
528.935	473.161
529.063	468.212
529.191	472.517
529.319	472.466
529.447	475.280
529.575	469.941
529.703	471.263
529.831	473.500
529.960	468.915
530.088	472.076
530.216	474.305
530.344	472.136
530.472	475.619
530.600	476.492
530.728	477.059
530.856	480.585
530.985	477.915
531.113	478.102
531.241	479.619
531.369	489.958
531.497	478.941
531.625	478.856
531.753	478.915
531.881	481.864
532.010	483.822
532.138	481.737
532.266	478.441
532.394	482.314
532.522	479.458
532.650	479.610
532.778	480.958
532.906	478.356
533.035	479.186
533.163	481.898
533.291	478.263
533.419	479.695
533.547	480.093
533.675	481.483
533.803	478.915
533.931	482.619
534.060	485.644
534.188	486.305
534.316	489.008
534.444	482.975
534.572	486.958
534.700	489.729
534.828	487.695
534.956	489.407
535.085	490.025
535.213	493.822
535.341	490.110
535.469	496.458
535.597	496.915
535.725	492.161
535.853	500.831
535.981	497.136
536.110	503.729
536.238	499.771
536.366	507.873
536.494	497.297
536.622	511.373
536.750	510.890
536.878	502.398
537.006	513.034
537.135	509.915
537.263	512.331
537.391	515.331
537.519	514.356
537.647	515.085
537.775	521.297
537.903	521.390
538.031	517.373
538.160	517.500
538.288	525.847
538.416	524.347
538.544	521.771
538.672	523.178
538.800	523.000
538.928	526.678
539.056	531.381
539.185	530.229
539.313	527.754
539.441	526.059
539.569	528.127
539.697	532.559
539.825	538.661
539.953	533.169
540.081	528.339
540.210	535.373
540.338	536.703
540.466	538.195
540.594	538.822
540.722	530.568
540.850	540.144
540.978	533.331
541.106	535.746
541.235	547.593
541.363	535.466
541.491	538.483
541.619	537.424
541.747	541.644
541.875	537.424
542.003	538.500
542.131	539.169
542.260	546.042
542.388	541.034
542.516	545.797
542.644	543.932
542.772	546.746
542.900	544.898
543.028	548.695
543.156	548.500
543.285	547.237
543.413	552.356
543.541	551.517
543.669	553.153
543.797	559.432
543.925	546.839
544.053	550.390
544.181	555.288
544.310	552.398
544.438	550.534
544.566	553.059
544.694	554.475
544.822	556.780
544.950	551.568
545.078	555.864
545.206	556.263
545.335	557.093
545.463	552.364
545.591	557.661
545.719	553.246
545.847	546.822
545.975	557.805
546.103	554.390
546.231	554.754
546.360	558.619
546.488	559.161
546.616	560.720
546.744	561.373
546.872	554.331
547.000	563.746
547.128	558.568
547.256	558.627
547.385	562.508
547.513	554.110
547.641	558.381
547.769	561.093
547.897	562.712
548.025	561.780
548.153	559.831
548.281	554.873
548.410	565.517
548.538	563.517
548.666	572.271
548.794	561.017
548.922	569.517
549.050	567.636
549.178	564.559
549.306	570.034
549.435	570.314
549.563	570.314
549.691	559.025
549.819	575.025
549.947	574.119
550.075	574.500
550.203	570.890
550.331	569.525
550.460	572.941
550.588	577.119
550.716	579.695
550.844	570.161
550.972	573.314
551.100	577.246
551.228	576.814
551.356	576.847
551.485	575.636
551.613	579.686
551.741	571.178
551.869	570.695
551.997	573.822
552.125	574.593
552.253	572.847
552.381	571.483
552.510	570.983
552.638	576.093
552.766	574.797
552.894	569.280
553.022	573.424
553.150	568.525
553.278	574.212
553.406	571.619
553.535	571.805
553.663	571.254
553.791	571.161
553.919	569.407
554.047	574.703
554.175	576.534
554.303	566.686
554.431	569.619
554.560	567.280
554.688	574.246
554.816	574.525
554.944	572.932
555.072	575.237
555.200	571.339
555.328	566.881
555.456	575.669
555.585	575.085
555.713	573.915
555.841	577.153
555.969	570.051
556.097	580.229
556.225	577.881
556.353	576.975
556.481	579.144
556.610	581.627
556.738	582.661
556.866	581.212
556.994	578.949
557.122	580.602
557.250	578.898
557.378	585.551
557.506	585.593
557.635	582.458
557.763	590.644
557.891	592.288
558.019	581.780
558.147	589.492
558.275	586.958
558.403	588.686
558.531	583.924
558.660	588.881
558.788	592.186
558.916	589.314
559.044	582.754
559.172	588.729
559.300	597.059
559.428	591.958
559.556	593.415
559.685	593.602
559.813	585.102
559.941	594.907
560.069	596.314
560.197	599.508
560.325	600.873
560.453	595.008
560.581	594.068
560.710	594.331
560.838	595.686
560.966	594.890
561.094	599.178
561.222	602.153
561.350	596.941
561.478	600.898
561.606	598.500
561.735	590.153
561.863	597.542
561.991	594.127
562.119	595.475
562.247	595.339
562.375	593.153
562.503	599.508
562.631	592.390
562.760	599.771
562.888	600.186
563.016	594.610
563.144	600.144
563.272	604.737
563.400	588.432
563.528	597.729
563.656	600.195
563.785	600.686
563.913	600.203
564.041	594.297
564.169	598.585
564.297	598.525
564.425	598.102
564.553	602.042
564.681	603.381
564.810	603.508
564.938	611.492
565.066	602.669
565.194	612.136
565.322	610.102
565.450	613.110
565.578	612.441
565.706	614.093
565.835	623.754
565.963	618.280
566.091	609.517
566.219	617.627
566.347	617.517
566.475	614.500
566.603	616.898
566.731	622.627
566.860	623.390
566.988	621.085
567.116	625.322
567.244	626.975
567.372	634.297
567.500	631.644
567.628	629.864
567.756	632.407
567.885	640.983
568.013	637.017
568.141	639.076
568.269	633.534
568.397	634.559
568.525	642.347
568.653	644.975
568.781	646.398
568.910	654.195
569.038	653.653
569.166	642.542
569.294	648.398
569.422	651.339
569.550	644.805
569.678	658.398
569.806	656.153
569.935	654.729
570.063	658.398
570.191	657.788
570.319	657.822
570.447	665.246
570.575	661.288
570.703	666.119
570.831	662.839
570.960	663.229
571.088	668.924
571.216	672.000
571.344	667.136
571.472	671.831
571.600	677.271
571.728	670.678
571.856	674.585
571.985	677.144
572.113	675.653
572.241	673.415
572.369	678.136
572.497	676.458
572.625	685.517
572.753	678.347
572.881	679.729
573.010	683.042
573.138	687.254
573.266	687.831
573.394	687.178
573.522	687.644
573.650	685.390
573.778	690.568
573.906	690.763
574.035	690.636
574.163	689.847
574.291	686.568
574.419	693.814
574.547	696.068
574.675	700.483
574.803	699.110
574.931	700.847
575.060	701.339
575.188	693.347
575.316	702.339
575.444	697.737
575.572	708.907
575.700	692.771
575.828	709.085
575.956	715.864
576.085	711.610
576.213	709.483
576.341	704.390
576.469	703.797
576.597	706.432
576.725	703.051
576.853	705.085
576.981	710.466
577.110	711.017
577.238	719.822
577.366	706.636
577.494	703.331
577.622	701.500
577.750	710.568
577.878	707.686
578.006	718.525
578.135	716.127
578.263	717.483
578.391	719.856
578.519	714.924
578.647	720.907
578.775	712.593
578.903	718.661
579.031	717.627
579.160	720.924
579.288	721.280
579.416	723.958
579.544	723.212
579.672	724.068
579.800	732.678
579.928	719.288
580.056	719.797
580.185	726.136
580.313	726.653
580.441	733.483
580.569	725.602
580.697	729.602
580.825	736.195
580.953	733.737
581.081	741.390
581.210	745.449
581.338	743.492
581.466	747.746
581.594	751.288
581.722	748.042
581.850	748.398
581.978	745.898
582.106	755.839
582.235	753.364
582.363	754.661
582.491	753.686
582.619	755.356
582.747	762.814
582.875	763.051
583.003	770.983
583.131	771.025
583.260	771.924
583.388	772.390
583.516	773.381
583.644	773.661
583.772	772.661
583.900	789.669
584.028	784.246
584.156	784.339
584.285	785.754
584.413	794.686
584.541	801.347
584.669	794.551
584.797	798.593
584.925	794.525
585.053	805.864
585.181	807.805
585.310	802.000
585.438	809.703
585.566	803.534
585.694	821.559
585.822	825.169
585.950	820.000
586.078	828.780
586.206	817.602
586.335	826.136
586.463	828.025
586.591	830.542
586.719	831.534
586.847	836.373
586.975	834.907
587.103	838.305
587.231	831.119
587.360	835.763
587.488	844.229
587.616	844.203
587.744	844.229
587.872	842.856
588.000	837.051
588.128	849.263
588.256	846.873
588.385	848.695
588.513	843.042
588.641	853.797
588.769	857.449
588.897	854.941
589.025	848.992
589.153	858.814
589.281	853.661
589.410	861.585
589.538	856.305
589.666	860.339
589.794	854.280
589.922	867.949
590.050	864.034
590.178	860.712
590.306	864.932
590.435	859.492
590.563	858.042
590.691	872.347
590.819	859.441
590.947	880.000
591.075	870.669
591.203	862.576
591.331	871.805
591.460	873.932
591.588	861.864
591.716	872.576
591.844	872.314
591.972	883.729
592.100	879.263
592.228	873.958
592.356	883.229
592.485	871.746
592.613	873.508
592.741	885.500
592.869	878.805
592.997	889.229
593.125	886.381
593.253	895.254
593.381	887.195
593.510	896.924
593.638	890.822
593.766	902.771
593.894	895.466
594.022	893.627
594.150	896.814
594.278	908.500
594.406	897.008
594.535	901.602
594.663	908.966
594.791	909.890
594.919	911.805
595.047	916.864
595.175	916.331
595.303	915.593
595.431	914.220
595.560	922.881
595.688	918.492
595.816	919.975
595.944	927.559
596.072	924.042
596.200	924.924
596.328	926.042
596.456	924.246
596.585	931.364
596.713	944.932
596.841	931.364
596.969	939.000
597.097	936.966
597.225	931.703
597.353	945.593
597.481	939.229
597.610	943.339
597.738	949.271
597.866	940.093
597.994	948.568
598.122	960.102
598.250	951.898
598.378	953.356
598.506	947.398
598.635	946.788
598.763	955.051
598.891	945.814
599.019	955.797
599.147	957.975
599.275	959.449
599.403	956.186
599.531	958.449
599.660	963.780
599.788	960.559
599.916	961.534
600.044	962.644
600.172	972.254
600.300	968.339
600.428	967.712
600.556	969.229
600.685	978.898
600.813	977.237
600.941	984.525
601.069	981.890
601.197	984.229
601.325	985.754
601.453	989.780
601.581	990.788
601.710	993.492
601.838	997.322
601.966	987.949
602.094	993.254
602.222	997.737
602.350	986.873
602.478	1004.593
602.606	1003.703
602.735	1005.856
602.863	1014.686
602.991	1013.847
603.119	1019.695
603.247	1017.305
603.375	1017.110
603.503	1007.517
603.631	1024.314
603.760	1019.119
603.888	1025.415
604.016	1017.195
604.144	1027.593
604.272	1035.263
604.400	1034.144
604.528	1035.017
604.656	1035.822
604.785	1031.381
604.913	1041.653
605.041	1041.619
605.169	1039.695
605.297	1040.356
605.425	1040.737
605.553	1041.500
605.681	1043.483
605.810	1041.831
605.938	1039.983
606.066	1045.407
606.194	1049.966
606.322	1045.703
606.450	1053.390
606.578	1054.763
606.706	1061.110
606.835	1056.398
606.963	1059.653
607.091	1053.559
607.219	1051.661
607.347	1049.890
607.475	1064.364
607.603	1052.314
607.731	1055.093
607.860	1049.390
607.988	1062.958
608.116	1056.593
608.244	1052.169
608.372	1053.186
608.500	1053.958
608.628	1062.534
608.756	1061.169
608.885	1059.161
609.013	1056.127
609.141	1052.102
609.269	1062.390
609.397	1046.703
609.525	1052.441
609.653	1058.890
609.781	1058.746
609.910	1046.814
610.038	1054.737
610.166	1058.398
610.294	1054.771
610.422	1058.424
610.550	1055.492
610.678	1055.746
610.806	1059.720
610.935	1053.678
611.063	1047.915
611.191	1058.280
611.319	1058.322
611.447	1056.373
611.575	1058.093
611.703	1048.949
611.831	1052.534
611.960	1050.102
612.088	1048.415
612.216	1060.636
612.344	1060.534
612.472	1049.915
612.600	1051.686
612.728	1053.305
612.856	1053.475
612.985	1048.822
613.113	1045.356
613.241	1058.737
613.369	1057.254
613.497	1049.525
613.625	1054.178
613.753	1044.186
613.881	1053.992
614.010	1049.492
614.138	1048.720
614.266	1043.008
614.394	1050.042
614.522	1048.780
614.650	1056.602
614.778	1040.746
614.906	1060.483
615.035	1050.568
615.163	1042.059
615.291	1045.059
615.419	1053.839
615.547	1035.983
615.675	1040.568
615.803	1043.314
615.931	1065.466
616.060	1062.525
616.188	1058.093
616.316	1049.297
616.444	1048.254
616.572	1049.907
616.700	1040.754
616.828	1056.475
616.956	1052.331
617.085	1060.136
617.213	1064.093
617.341	1048.983
617.469	1051.127
617.597	1061.992
617.725	1059.644
617.853	1048.364
617.981	1057.576
618.110	1067.551
618.238	1060.492
618.366	1068.042
618.494	1063.627
618.622	1062.364
618.750	1056.085
618.878	1068.449
619.006	1067.771
619.135	1068.797
619.263	1078.864
619.391	1064.559
619.519	1067.534
619.647	1080.220
619.775	1069.898
619.903	1077.042
620.031	1077.576
620.160	1076.051
620.288	1073.034
620.416	1086.780
620.544	1076.068
620.672	1081.822
620.800	1073.220
620.928	1079.703
621.056	1084.212
621.185	1078.068
621.313	1088.797
621.441	1092.415
621.569	1097.695
621.697	1090.246
621.825	1084.593
621.953	1089.958
622.081	1099.356
622.210	1095.042
622.338	1082.873
622.466	1081.305
622.594	1100.686
622.722	1095.008
622.850	1092.992
622.978	1094.720
623.106	1095.475
623.235	1099.059
623.363	1098.136
623.491	1081.949
623.619	1089.093
623.747	1088.008
623.875	1091.178
624.003	1083.212
624.131	1086.585
624.260	1072.432
624.388	1088.246
624.516	1096.568
624.644	1090.432
624.772	1080.373
624.900	1088.983
625.028	1081.754
625.156	1103.669
625.285	1082.924
625.413	1092.958
625.541	1080.720
625.669	1086.500
625.797	1085.686
625.925	1073.975
626.053	1071.881
626.181	1088.229
626.310	1073.881
626.438	1073.653
626.566	1073.856
626.694	1068.864
626.822	1071.941
626.950	1080.551
627.078	1067.475
627.206	1069.585
627.335	1073.288
627.463	1068.678
627.591	1071.153
627.719	1068.881
627.847	1071.924
627.975	1074.500
628.103	1058.720
628.231	1072.737
628.360	1070.771
628.488	1069.797
628.616	1063.864
628.744	1060.610
628.872	1055.237
629.000	1056.339
629.128	1061.864
629.256	1075.212
629.385	1057.873
629.513	1053.364
629.641	1060.051
629.769	1055.153
629.897	1065.966
630.025	1062.500
630.153	1053.093
630.281	1051.424
630.410	1048.246
630.538	1062.034
630.666	1053.915
630.794	1054.746
630.922	1037.119
631.050	1033.966
631.178	1048.466
631.306	1047.068
631.435	1044.254
631.563	1051.822
631.691	1035.661
631.819	1042.339
631.947	1040.678
632.075	1038.763
632.203	1047.636
632.331	1038.466
632.460	1034.381
632.588	1032.432
632.716	1037.678
632.844	1033.559
632.972	1033.695
633.100	1037.203
633.228	1033.992
633.356	1023.102
633.485	1023.076
633.613	1032.975
633.741	1021.737
633.869	1024.331
633.997	1022.559
634.125	1020.119
634.253	1008.898
634.381	1006.339
634.510	1014.720
634.638	1001.686
634.766	1001.203
634.894	1000.508
635.022	1003.500
635.150	998.424
635.278	1012.949
635.406	1005.339
635.535	1010.771
635.663	1005.941
635.791	998.568
635.919	1006.525
636.047	993.983
636.175	989.669
636.303	1004.746
636.431	990.390
636.560	996.898
636.688	994.992
636.816	992.975
636.944	986.220
637.072	985.653
637.200	989.458
637.328	969.720
637.456	984.763
637.585	974.068
637.713	986.263
637.841	980.585
637.969	978.636
638.097	970.508
638.225	968.602
638.353	981.102
638.481	977.322
638.610	977.314
638.738	970.992
638.866	964.483
638.994	962.907
639.122	966.525
639.250	968.102
639.378	966.398
639.506	950.653
639.635	968.720
639.763	951.500
639.891	963.831
640.019	963.119
640.147	954.280
640.275	953.737
640.403	959.686
640.531	951.975
640.660	951.712
640.788	959.271
640.916	950.127
641.044	955.754
641.172	947.076
641.300	954.831
641.428	948.661
641.556	955.042
641.685	945.551
641.813	945.246
641.941	950.551
642.069	945.847
642.197	947.805
642.325	942.576
642.453	949.873
642.581	941.381
642.710	930.229
642.838	943.653
642.966	938.805
643.094	930.771
643.222	931.695
643.350	935.398
643.478	931.339
643.606	942.381
643.735	936.932
643.863	925.178
643.991	938.831
644.119	936.551
644.247	925.814
644.375	927.000
644.503	924.322
644.631	938.195
644.760	929.661
644.888	926.475
645.016	925.805
645.144	933.407
645.272	922.703
645.400	914.661
645.528	923.203
645.656	912.076
645.785	919.398
645.913	913.051
646.041	924.373
646.169	910.136
646.297	903.331
646.425	909.839
646.553	899.144
646.681	904.025
646.810	902.754
646.938	903.619
647.066	895.703
647.194	900.839
647.322	901.831
647.450	888.712
647.578	893.559
647.706	892.737
647.835	891.305
647.963	881.788
648.091	894.398
648.219	877.508
648.347	883.195
648.475	876.364
648.603	878.924
648.731	877.585
648.860	867.000
648.988	871.780
649.116	875.907
649.244	863.686
649.372	859.542
649.500	858.449
649.628	863.059
649.756	854.551
649.885	855.339
650.013	849.161
650.141	842.110
650.269	836.814
650.397	847.678
650.525	840.907
650.653	839.441
650.781	833.042
650.910	828.932
651.038	827.805
651.166	825.271
651.294	819.297
651.422	815.636
651.550	816.161
651.678	808.195
651.806	813.034
651.935	812.246
652.063	811.661
652.191	793.297
652.319	804.314
652.447	800.831
652.575	794.542
652.703	793.500
652.831	791.864
652.960	785.508
653.088	783.237
653.216	779.568
653.344	775.602
653.472	776.008
653.600	775.788
653.728	771.746
653.856	766.975
653.985	766.831
654.113	764.805
654.241	762.068
654.369	761.720
654.497	767.958
654.625	753.127
654.753	758.059
654.881	760.542
655.010	755.508
655.138	755.220
655.266	746.669
655.394	742.169
655.522	747.585
655.650	734.847
655.778	733.737
655.906	744.678
656.035	738.907
656.163	738.780
656.291	732.314
656.419	727.941
656.547	734.593
656.675	725.627
656.803	731.195
656.931	728.246
657.060	720.331
657.188	720.178
657.316	721.975
657.444	721.093
657.572	715.398
657.700	719.246
657.828	711.398
657.956	706.678
658.085	718.068
658.213	709.729
658.341	706.703
658.469	705.381
658.597	698.593
658.725	704.254
658.853	692.983
658.981	692.449
659.110	687.288
659.238	694.720
659.366	693.915
659.494	680.314
659.622	687.483
659.750	687.661
659.878	687.017
660.006	685.915
660.135	684.797
660.263	675.347
660.391	673.017
660.519	677.839
660.647	677.737
660.775	668.119
660.903	668.932
661.031	670.627
661.160	664.551
661.288	664.407
661.416	661.449
661.544	658.771
661.672	659.712
661.800	662.856
661.928	657.415
662.056	649.508
662.185	651.254
662.313	647.915
662.441	649.068
662.569	650.458
662.697	650.797
662.825	648.593
662.953	649.492
663.081	643.720
663.210	645.475
663.338	644.873
663.466	634.356
663.594	627.364
663.722	630.797
663.850	636.195
663.978	630.280
664.106	628.627
664.235	639.669
664.363	628.110
664.491	618.746
664.619	623.220
664.747	622.000
664.875	619.415
665.003	622.805
665.131	622.110
665.260	620.025
665.388	612.873
665.516	612.051
665.644	611.763
665.772	611.525
665.900	611.746
666.028	609.890
666.156	613.220
666.285	604.992
666.413	599.424
666.541	600.203
666.669	603.186
666.797	596.500
666.925	596.441
667.053	600.975
667.181	599.119
667.310	592.788
667.438	588.924
667.566	593.093
667.694	589.636
667.822	591.864
667.950	583.534
668.078	581.576
668.206	581.085
668.335	578.220
668.463	584.593
668.591	578.008
668.719	580.831
668.847	571.136
668.975	575.864
669.103	578.195
669.231	574.966
669.360	573.237
669.488	574.754
669.616	571.364
669.744	569.966
669.872	562.068
670.000	570.492
670.128	559.034
670.256	564.136
670.385	556.992
670.513	558.390
670.641	556.915
670.769	551.500
670.897	553.466
671.025	548.280
671.153	546.864
671.281	549.458
671.410	543.610
671.538	544.593
671.666	545.508
671.794	538.661
671.922	536.068
672.050	538.466
672.178	536.661
672.306	534.042
672.435	532.619
672.563	538.542
672.691	529.153
672.819	536.042
672.947	530.534
673.075	525.975
673.203	521.847
673.331	519.034
673.460	522.678
673.588	511.788
673.716	515.966
673.844	511.085
673.972	515.653
674.100	514.432
674.228	514.949
674.356	504.585
674.485	513.610
674.613	499.136
674.741	503.720
674.869	505.703
674.997	499.237
675.125	496.585
675.253	499.144
675.381	497.542
675.510	493.941
675.638	490.941
675.766	491.288
675.894	487.695
676.022	486.992
676.150	478.695
676.278	488.305
676.406	483.475
676.535	476.314
676.663	476.890
676.791	471.831
676.919	472.831
677.047	468.424
677.175	469.356
677.303	474.475
677.431	473.949
677.560	466.000
677.688	467.983
677.816	457.678
677.944	464.517
678.072	458.339
678.200	458.280
678.328	458.763
678.456	456.915
678.585	449.042
678.713	453.008
678.841	446.305
678.969	447.915
679.097	447.229
679.225	447.119
679.353	448.085
679.481	438.949
679.610	445.763
679.738	438.280
679.866	438.949
679.994	433.746
680.122	437.034
680.250	433.483
680.378	429.017
680.506	428.805
680.635	427.958
680.763	425.034
680.891	426.153
681.019	429.178
681.147	425.136
681.275	422.856
681.403	423.576
681.531	422.356
681.660	417.593
681.788	420.636
681.916	410.551
682.044	418.042
682.172	410.297
682.300	408.729
682.428	409.636
682.556	408.585
682.685	409.593
682.813	409.297
682.941	404.000
683.069	402.042
683.197	401.653
683.325	397.966
683.453	402.000
683.581	399.153
683.710	398.169
683.838	402.297
683.966	396.364
684.094	399.271
684.222	398.203
684.350	392.805
684.478	391.508
684.606	396.508
684.735	394.364
684.863	390.398
684.991	390.390
685.119	393.653
685.247	387.237
685.375	383.585
685.503	387.364
685.631	381.907
685.760	389.381
685.888	381.093
686.016	385.517
686.144	384.458
686.272	379.576
686.400	382.169
686.528	376.432
686.656	377.169
686.785	375.915
686.913	377.534
687.041	371.119
687.169	370.881
687.297	370.856
687.425	369.534
687.553	367.153
687.681	368.297
687.810	368.644
687.938	368.839
688.066	365.102
688.194	363.737
688.322	363.136
688.450	361.958
688.578	363.822
688.706	364.364
688.835	361.458
688.963	361.949
689.091	360.695
689.219	358.966
689.347	357.271
689.475	359.737
689.603	353.288
689.731	354.254
689.860	354.254
689.988	351.568
690.116	353.102
690.244	352.797
690.372	352.297
690.500	351.644
690.628	350.297
690.756	345.271
690.885	345.678
691.013	348.525
691.141	349.585
691.269	346.941
691.397	351.102
691.525	345.644
691.653	347.136
691.781	345.331
691.910	337.627
692.038	340.280
692.166	338.492
692.294	339.822
692.422	336.000
692.550	333.627
692.678	334.381
692.806	335.331
692.935	335.229
693.063	331.034
693.191	333.220
693.319	328.186
693.447	328.805
693.575	330.585
693.703	325.898
693.831	328.941
693.960	327.025
694.088	326.356
694.216	325.559
694.344	324.712
694.472	322.237
694.600	322.763
694.728	321.559
694.856	319.805
694.985	319.364
695.113	321.517
695.241	313.551
695.369	316.076
695.497	316.254
695.625	314.932
695.753	310.856
695.881	312.992
696.010	308.212
696.138	312.458
696.266	311.975
696.394	308.008
696.522	307.432
696.650	307.619
696.778	304.119
696.906	305.763
697.035	300.212
697.163	301.644
697.291	301.678
697.419	298.195
697.547	299.051
697.675	298.305
697.803	298.347
697.931	293.966
698.060	295.517
698.188	294.983
698.316	295.195
698.444	294.331
698.572	293.593
698.700	292.263
698.828	291.754
698.956	285.627
699.085	289.805
699.213	287.059
699.341	285.856
699.469	285.763
699.597	289.695
699.725	285.254
699.853	281.305
699.981	282.161
700.110	280.508
700.238	285.661
700.366	278.780
700.494	280.178
700.622	281.212
700.750	279.873
700.878	275.525
701.006	276.585
701.135	279.390
701.263	275.729
701.391	273.559
701.519	273.754
701.647	269.398
701.775	272.746
701.903	272.432
702.031	273.856
702.160	271.093
702.288	270.025
702.416	268.068
702.544	266.441
702.672	267.025
702.800	264.924
702.928	266.568
703.056	265.390
703.185	263.822
703.313	263.754
703.441	263.254
703.569	264.695
703.697	263.068
703.825	262.305
703.953	261.678
704.081	255.695
704.210	254.161
704.338	258.754
704.466	254.712
704.594	257.441
704.722	256.339
704.850	257.008
704.978	256.059
705.106	252.559
705.235	251.390
705.363	252.263
705.491	248.729
705.619	249.356
705.747	246.203
705.875	250.907
706.003	248.322
706.131	248.619
706.260	247.492
706.388	248.093
706.516	244.076
706.644	247.008
706.772	243.737
706.900	239.966
707.028	239.364
707.156	241.390
707.285	239.619
707.413	241.305
707.541	234.992
707.669	237.331
707.797	237.559
707.925	235.602
708.053	235.992
708.181	235.856
708.310	234.551
708.438	232.966
708.566	233.915
708.694	234.466
708.822	235.364
708.950	232.305
709.078	228.322
709.206	229.415
709.335	227.780
709.463	226.720
709.591	226.669
709.719	222.847
709.847	225.483
709.975	227.322
710.103	222.568
710.231	224.093
710.360	225.254
710.488	219.297
710.616	222.085
710.744	220.508
710.872	222.347
711.000	222.186
711.128	218.407
711.256	218.746
711.385	217.678
711.513	216.814
711.641	216.797
711.769	216.059
711.897	217.500
712.025	215.559
712.153	217.127
712.281	214.771
712.410	215.449
712.538	213.254
712.666	212.576
712.794	211.136
712.922	211.508
713.050	209.483
713.178	211.737
713.306	213.271
713.435	209.229
713.563	207.059
713.691	209.864
713.819	208.890
713.947	205.669
714.075	206.263
714.203	207.559
714.331	204.873
714.460	204.686
714.588	205.212
714.716	207.373
714.844	203.551
714.972	200.025
715.100	204.458
715.228	203.737
715.356	202.551
715.485	201.983
715.613	197.822
715.741	200.644
715.869	201.661
715.997	199.169
716.125	197.110
716.253	197.881
716.381	198.949
716.510	195.780
716.638	200.763
716.766	194.525
716.894	196.653
717.022	195.127
717.150	193.347
717.278	197.398
717.406	195.847
717.535	194.025
717.663	194.458
717.791	196.576
717.919	193.186
718.047	191.720
718.175	192.373
718.303	190.568
718.431	193.000
718.560	191.788
718.688	188.881
718.816	189.000
718.944	189.754
719.072	192.449
719.200	190.254
719.328	188.932
719.456	188.110
719.585	189.246
719.713	190.237
719.841	186.025
719.969	186.839
720.097	185.703
720.225	185.864
720.353	188.008
720.481	186.788
720.610	183.373
720.738	183.381
720.866	184.636
720.994	184.958
721.122	184.559
721.250	183.703
721.378	181.686
721.506	182.042
721.635	183.949
721.763	183.042
721.891	182.754
722.019	181.449
722.147	181.398
722.275	179.356
722.403	179.856
722.531	179.110
722.660	177.771
722.788	175.381
722.916	176.246
723.044	177.492
723.172	176.720
723.300	176.449
723.428	175.653
723.556	173.398
723.685	176.288
723.813	177.025
723.941	175.186
724.069	174.424
724.197	174.636
724.325	172.703
724.453	171.407
724.581	172.746
724.710	172.263
724.838	172.627
724.966	170.729
725.094	173.000
725.222	170.941
725.350	170.373
725.478	172.831
725.606	170.314
725.735	168.178
725.863	169.610
725.991	169.415
726.119	167.271
726.247	167.966
726.375	166.051
726.503	167.542
726.631	166.000
726.760	168.263
726.888	167.136
727.016	164.263
727.144	164.873
727.272	164.568
727.400	165.602
727.528	162.398
727.656	164.288
727.785	163.881
727.913	160.788
728.041	164.390
728.169	164.280
728.297	158.669
728.425	161.169
728.553	161.229
728.681	159.890
728.810	158.932
728.938	160.551
729.066	162.178
729.194	161.754
729.322	161.059
729.450	158.305
729.578	158.746
729.706	156.898
729.835	158.534
729.963	160.873
730.091	158.449
730.219	156.297
730.347	157.797
730.475	154.797
730.603	157.136
730.731	156.746
730.860	155.076
730.988	156.686
731.116	155.212
731.244	154.915
731.372	154.856
731.500	151.949
731.628	154.653
731.756	154.720
731.885	153.568
732.013	150.585
732.141	153.017
732.269	151.492
732.397	151.898
732.525	152.678
732.653	151.568
732.781	153.051
732.910	150.356
733.038	150.559
733.166	149.653
733.294	151.661
733.422	148.873
733.550	149.263
733.678	149.008
733.806	151.847
733.935	149.178
734.063	148.992
734.191	151.203
734.319	147.576
734.447	147.466
734.575	146.958
734.703	149.339
734.831	146.924
734.960	146.263
735.088	146.314
735.216	148.551
735.344	146.949
735.472	144.763
735.600	145.356
735.728	145.136
735.856	146.415
735.985	144.525
736.113	145.136
736.241	143.449
736.369	145.983
736.497	144.890
736.625	143.720
736.753	144.678
736.881	143.644
737.010	141.881
737.138	141.627
737.266	142.186
737.394	141.195
737.522	141.881
737.650	143.153
737.778	145.390
737.906	141.271
738.035	140.051
738.163	140.712
738.291	142.136
738.419	139.119
738.547	141.983
738.675	140.831
738.803	139.636
738.931	141.305
739.060	139.703
739.188	141.593
739.316	139.246
739.444	140.424
739.572	139.042
739.700	140.347
739.828	139.288
739.956	136.492
740.085	139.814
740.213	137.788
740.341	137.280
740.469	139.856
740.597	138.771
740.725	138.924
740.853	138.814
740.981	136.831
741.110	137.119
741.238	138.314
741.366	136.703
741.494	137.763
741.622	138.703
741.750	137.017
741.878	137.763
742.006	136.966
742.135	135.780
742.263	135.483
742.391	134.331
742.519	134.059
742.647	136.008
742.775	136.364
742.903	134.839
743.031	133.678
743.160	133.814
743.288	134.297
743.416	133.280
743.544	132.983
743.672	133.458
743.800	136.102
743.928	133.797
744.056	133.331
744.185	133.695
744.313	133.008
744.441	132.881
744.569	132.593
744.697	132.619
744.825	132.907
744.953	132.263
745.081	132.119
745.210	134.441
745.338	131.966
745.466	132.898
745.594	131.975
745.722	131.042
745.850	130.619
745.978	133.246
746.106	131.780
746.235	132.780
746.363	133.017
746.491	130.203
746.619	129.161
746.747	131.466
746.875	130.992
747.003	131.186
747.131	130.195
747.260	131.449
747.388	131.458
747.516	130.356
747.644	129.500
747.772	129.339
747.900	129.932
748.028	130.254
748.156	128.881
748.285	131.102
748.413	129.636
748.541	129.381
748.669	128.720
748.797	128.653
748.925	125.331
749.053	127.237
749.181	127.441
749.310	127.237
749.438	128.814
749.566	126.907
749.694	128.322
749.822	126.966
749.950	128.178
750.078	128.492
750.206	128.466
750.335	125.331
750.463	125.695
750.591	126.890
750.719	127.085
750.847	123.364
750.975	125.415
751.103	124.661
751.231	126.373
751.360	126.924
751.488	125.534
751.616	124.500
751.744	125.127
751.872	125.695
752.000	126.390
752.128	125.686
752.256	124.932
752.385	124.000
752.513	124.441
752.641	123.322
752.769	123.831
752.897	123.331
753.025	122.483
753.153	124.720
753.281	123.271
753.410	123.042
753.538	122.127
753.666	124.136
753.794	122.703
753.922	122.508
754.050	122.347
754.178	122.847
754.306	121.280
754.435	122.839
754.563	122.847
754.691	122.610
754.819	122.059
754.947	122.381
755.075	122.619
755.203	123.229
755.331	122.619
755.460	121.949
755.588	121.805
755.716	121.271
755.844	120.144
755.972	122.407
756.100	120.525
756.228	120.780
756.356	120.390
756.485	120.559
756.613	121.958
756.741	119.610
756.869	121.000
756.997	120.983
757.125	121.059
757.253	119.805
757.381	118.551
757.510	120.373
757.638	121.076
757.766	120.407
757.894	120.314
758.022	119.381
758.150	118.780
758.278	120.814
758.406	118.847
758.535	119.805
758.663	120.415
758.791	119.703
758.919	118.254
759.047	117.915
759.175	118.881
759.303	119.347
759.431	117.483
759.560	118.839
759.688	120.449
759.816	119.593
759.944	118.347
760.072	117.864
760.200	117.992
760.328	119.305
760.456	119.347
760.585	120.500
760.713	117.915
760.841	118.483
760.969	118.441
761.097	117.000
761.225	118.042
761.353	118.559
761.481	118.381
761.610	117.873
761.738	117.847
761.866	119.068
761.994	116.881
762.122	117.110
762.250	118.110
762.378	116.881
762.506	118.110
762.635	118.347
762.763	116.814
762.891	118.161
763.019	116.602
763.147	118.356
763.275	118.814
763.403	117.288
763.531	115.534
763.660	117.212
763.788	117.763
763.916	118.136
764.044	116.898
764.172	116.653
764.300	116.831
764.428	116.466
764.556	116.025
764.685	117.059
764.813	115.873
764.941	116.678
765.069	116.025
765.197	114.992
765.325	115.297
765.453	116.373
765.581	115.347
765.710	115.356
765.838	114.627
765.966	116.025
766.094	115.703
766.222	114.805
766.350	114.407
766.478	114.237
766.606	114.627
766.735	114.356
766.863	113.864
766.991	115.754
767.119	115.195
767.247	115.059
767.375	114.729
767.503	114.644
767.631	115.085
767.760	114.669
767.888	114.517
768.016	114.449
768.144	115.000
768.272	114.449
768.400	114.280
768.528	114.992
768.656	114.153
768.785	114.000
768.913	114.568
769.041	114.593
769.169	113.746
769.297	114.025
769.425	113.169
769.553	113.966
769.681	112.398
769.810	115.500
769.938	112.347
770.066	112.847
770.194	112.525
770.322	113.415
770.450	113.186
770.578	112.415
770.706	112.322
770.835	112.576
770.963	113.407
771.091	113.661
771.219	112.780
771.347	113.237
771.475	113.653
771.603	113.534
771.731	112.975
771.860	114.915
771.988	113.492
772.116	113.331
772.244	112.051
772.372	112.661
772.500	113.712
772.628	113.653
772.756	112.068
772.885	113.186
773.013	113.203
773.141	111.508
773.269	111.856
773.397	112.127
773.525	112.720
773.653	111.508
773.781	112.119
773.910	111.051
774.038	111.263
774.166	113.602
774.294	111.771
774.422	111.864
774.550	112.678
774.678	112.517
774.806	112.898
774.935	111.780
775.063	111.678
775.191	112.288
775.319	112.195
775.447	111.551
775.575	111.712
775.703	109.932
775.831	111.085
775.960	111.602
776.088	112.000
776.216	111.822
776.344	111.076
776.472	111.754
776.600	112.136
776.728	111.881
776.856	111.602
776.985	112.449
777.113	111.085
777.241	110.271
777.369	110.771
777.497	110.415
777.625	110.517
777.753	110.203
777.881	110.305
778.010	110.542
778.138	109.966
778.266	110.051
778.394	110.839
778.522	111.373
778.650	110.932
778.778	109.186
778.906	110.610
779.035	110.839
779.163	110.373
779.291	110.839
779.419	110.949
779.547	109.839
779.675	110.678
779.803	111.203
779.931	109.517
780.060	109.805
780.188	110.203
780.316	109.881
780.444	110.915
780.572	108.966
780.700	111.178
780.828	110.814
780.956	109.254
781.085	110.017
781.213	109.585
781.341	109.458
781.469	109.890
781.597	110.119
781.725	108.966
781.853	110.220
781.981	110.008
782.110	110.525
782.238	108.644
782.366	109.585
782.494	109.415
782.622	110.059
782.750	109.669
782.878	111.042
783.006	109.907
783.135	110.737
783.263	109.763
783.391	110.458
783.519	109.280
783.647	108.280
783.775	108.458
783.903	110.008
784.031	109.008
784.160	109.000
784.288	109.254
784.416	109.449
784.544	108.822
784.672	109.085
784.800	108.873
784.928	108.542
785.056	107.788
785.185	108.669
785.313	108.415
785.441	108.169
785.569	109.797
785.697	109.559
785.825	109.153
785.953	107.831
786.081	108.585
786.210	108.195
786.338	109.517
786.466	108.008
786.594	107.983
786.722	108.559
786.850	108.619
786.978	108.110
787.106	108.458
787.235	108.483
787.363	109.178
787.491	109.373
787.619	108.890
787.747	108.686
787.875	109.008
788.003	108.203
788.131	107.771
788.260	108.102
788.388	108.271
788.516	107.136
788.644	107.602
788.772	106.941
788.900	108.288
789.028	107.051
789.156	107.746
789.285	108.153
789.413	107.915
789.541	108.178
789.669	107.102
789.797	106.847
789.925	107.797
790.053	108.153
790.181	107.814
790.310	107.390
790.438	107.788
790.566	107.873
790.694	107.458
790.822	107.525
790.950	107.839
791.078	108.305
791.206	107.034
791.335	107.339
791.463	107.492
791.591	107.254
791.719	107.788
791.847	106.347
791.975	106.644
792.103	107.636
792.231	107.203
792.360	107.669
792.488	106.602
792.616	107.780
792.744	106.907
792.872	106.941
793.000	108.068
793.128	107.059
793.256	108.195
793.385	107.110
793.513	107.585
793.641	107.398
793.769	105.890
793.897	106.814
794.025	107.559
794.153	106.771
794.281	106.754
794.410	106.356
794.538	107.398
794.666	108.398
794.794	106.102
794.922	107.237
795.050	106.449
795.178	107.144
795.306	105.534
795.435	106.712
795.563	106.356
795.691	106.907
795.819	106.246
795.947	106.246
796.075	107.203
796.203	107.797
796.331	105.398
796.460	106.076
796.588	106.856
796.716	107.305
796.844	106.602
796.972	108.127
797.100	105.847
797.228	107.212
797.356	107.763
797.485	106.619
797.613	106.381
797.741	107.322
797.869	107.551
797.997	106.763
798.125	106.407
798.253	106.449
798.381	105.712
798.510	105.992
798.638	105.525
798.766	106.178
798.894	105.525
799.022	105.339
799.150	105.161
799.278	105.017
799.406	106.305
799.535	106.542
799.663	106.585
799.791	104.686
799.919	105.619
800.047	106.076
800.175	106.305
800.303	105.712
800.431	105.847
800.560	105.339
800.688	105.669
800.816	105.136
800.944	105.941
801.072	106.500
801.200	106.331
801.328	105.712
801.456	106.364
801.585	106.568
801.713	105.534
801.841	106.034
801.969	105.780
802.097	106.856
802.225	106.763
802.353	106.314
802.481	106.686
802.610	106.331
802.738	105.110
802.866	106.068
802.994	105.178
803.122	105.831
803.250	106.178
803.378	106.254
803.506	106.144
803.635	106.610
803.763	105.754
803.891	106.966
804.019	106.390
804.147	106.941
804.275	104.703
804.403	105.644
804.531	105.186
804.660	105.466
804.788	106.508
804.916	105.458
805.044	104.653
805.172	106.263
805.300	105.339
805.428	106.466
805.556	105.492
805.685	105.915
805.813	106.627
805.941	105.500
806.069	106.229
806.197	106.644
806.325	104.627
806.453	106.424
806.581	105.441
806.710	105.390
806.838	104.720
806.966	105.568
807.094	105.076
807.222	105.237
807.350	105.661
807.478	105.212
807.606	104.356
807.735	105.203
807.863	106.008
807.991	105.551
808.119	105.525
808.247	105.144
808.375	105.729
808.503	104.644
808.631	105.881
808.760	105.161
808.888	104.797
809.016	105.958
809.144	105.788
809.272	106.119
809.400	106.288
809.528	104.314
809.656	105.186
809.785	104.475
809.913	105.441
810.041	104.492
810.169	104.822
810.297	105.975
810.425	104.864
810.553	104.110
810.681	106.178
810.810	105.458
810.938	105.949
811.066	104.288
811.194	104.407
811.322	105.483
811.450	105.347
811.578	105.593
811.706	105.517
811.835	105.008
811.963	105.458
812.091	105.593
812.219	104.992
812.347	104.441
812.475	104.924
812.603	104.983
812.731	104.593
812.860	105.695
812.988	106.025
813.116	104.966
813.244	105.814
813.372	105.729
813.500	104.847
813.628	105.458
813.756	104.212
813.885	105.475
814.013	104.712
814.141	105.424
814.269	104.746
814.397	105.398
814.525	105.169
814.653	105.568
814.781	104.941
814.910	104.686
815.038	105.780
815.166	105.890
815.294	105.525
815.422	105.669
815.550	104.407
815.678	104.864
815.806	105.153
815.935	104.551
816.063	104.890
816.191	103.975
816.319	104.788
816.447	105.890
816.575	105.288
816.703	105.169
816.831	105.966
816.960	105.339
817.088	105.322
817.216	105.153
817.344	105.085
817.472	105.797
817.600	104.568
817.728	104.695
817.856	105.636
817.985	103.898
818.113	105.008
818.241	105.203
818.369	103.669
818.497	105.407
818.625	104.449
818.753	104.551
818.881	104.576
819.010	104.339
819.138	104.517
819.266	104.153
819.394	105.025
819.522	103.424
819.650	105.407
819.778	104.288
819.906	105.085
820.035	103.856
820.163	104.907
820.291	103.992
820.419	103.678
820.547	105.237
820.675	103.161
820.803	104.695
820.931	104.746
821.060	103.415
821.188	104.593
821.316	104.254
821.444	104.712
821.572	104.788
821.700	104.153
821.828	104.881
821.956	104.737
822.085	104.017
822.213	104.653
822.341	104.483
822.469	103.636
822.597	103.763
822.725	103.424
822.853	104.059
822.981	104.339
823.110	104.822
823.238	102.771
823.366	104.720
823.494	102.729
823.622	104.178
823.750	104.424
823.878	102.958
824.006	105.593
824.135	105.178
824.263	104.534
824.391	104.237
824.519	104.576
824.647	103.966
824.775	104.678
824.903	104.771
825.031	105.025
825.160	105.203
825.288	103.975
825.416	104.822
825.544	105.034
825.672	105.102
825.800	104.373
825.928	104.737
826.056	104.271
826.185	103.856
826.313	104.500
826.441	104.576
826.569	103.525
826.697	104.297
826.825	103.949
826.953	104.593
827.081	103.415
827.210	104.220
827.338	103.500
827.466	103.695
827.594	104.169
827.722	104.754
827.850	104.034
827.978	104.017
828.106	103.712
828.235	105.178
828.363	104.390
828.491	104.381
828.619	104.712
828.747	104.339
828.875	104.237
829.003	104.585
829.131	104.915
829.260	105.331
829.388	104.305
829.516	104.271
829.644	104.237
829.772	104.432
829.900	104.831
830.028	104.525
830.156	104.746
830.285	104.025
830.413	104.534
830.541	104.669
830.669	103.686
830.797	103.153
830.925	103.924
831.053	103.347
831.181	104.737
831.310	104.136
831.438	103.966
831.566	103.839
831.694	103.941
831.822	103.347
831.950	103.720
832.078	104.466
832.206	103.263
832.335	103.085
832.463	104.314
832.591	103.915
832.719	103.237
832.847	104.042
832.975	103.161
833.103	104.178
833.231	103.517
833.360	104.983
833.488	104.068
833.616	103.864
833.744	103.407
833.872	104.746
834.000	105.093
834.128	105.229
834.256	104.331
834.385	104.331
834.513	105.347
834.641	103.500
834.769	102.593
834.897	104.831
835.025	102.441
835.153	103.322
835.281	103.627
835.410	103.805
835.538	104.432
835.666	104.449
835.794	105.254
835.922	104.119
836.050	103.492
836.178	103.347
836.306	103.610
836.435	103.441
836.563	103.110
836.691	104.110
836.819	104.551
836.947	103.500
837.075	104.339
837.203	103.059
837.331	103.314
837.460	103.729
837.588	103.712
837.716	103.720
837.844	103.703
837.972	103.941
838.100	104.178
838.228	103.119
838.356	102.534
838.485	102.076
838.613	102.805
838.741	103.271
838.869	103.763
838.997	104.297
839.125	102.331
839.253	102.381
839.381	103.525
839.510	103.559
839.638	103.525
839.766	102.966
839.894	103.534
840.022	103.644
840.150	103.847
840.278	103.373
840.406	104.254
840.535	104.441
840.663	102.034
840.791	102.475
840.919	103.297
841.047	102.407
841.175	103.466
841.303	103.576
841.431	103.475
841.560	103.364
841.688	103.415
841.816	103.839
841.944	102.831
842.072	103.347
842.200	103.847
842.328	103.127
842.456	103.229
842.585	103.873
842.713	103.322
842.841	102.839
842.969	103.025
843.097	103.636
843.225	102.949
843.353	103.576
843.481	103.169
843.610	103.525
843.738	102.636
843.866	102.839
