70-70-unpol_at_679.99nm_cut_at_1286.00Y_01.dat
24.01.2024
11:24:40
cut middle at Y: 1286.00
top cursor: 1345 down cursor: 1227 mean of: 118 lines , 2560 datapoints
wavelength(nm)	intensity[arb. units]
515.994	1151.983
516.122	1088.195
516.250	1070.169
516.378	1062.153
516.506	1066.322
516.635	1070.890
516.763	1076.297
516.891	1084.398
517.019	1087.220
517.147	1083.254
517.275	1090.814
517.403	1088.771
517.531	1081.068
517.660	1085.966
517.788	1087.271
517.916	1088.771
518.044	1086.475
518.172	1089.110
518.300	1097.169
518.428	1094.432
518.556	1095.941
518.685	1102.636
518.813	1098.966
518.941	1104.432
519.069	1111.542
519.197	1093.890
519.325	1111.076
519.453	1103.678
519.581	1124.000
519.710	1117.424
519.838	1124.483
519.966	1127.356
520.094	1129.025
520.222	1117.720
520.350	1142.144
520.478	1150.534
520.606	1154.008
520.735	1148.712
520.863	1146.186
520.991	1164.932
521.119	1157.186
521.247	1161.042
521.375	1167.356
521.503	1168.525
521.631	1169.644
521.760	1164.593
521.888	1178.839
522.016	1175.017
522.144	1184.288
522.272	1185.797
522.400	1189.407
522.528	1198.432
522.656	1204.025
522.785	1208.890
522.913	1208.525
523.041	1205.551
523.169	1202.229
523.297	1205.839
523.425	1215.051
523.553	1207.932
523.681	1211.746
523.810	1222.246
523.938	1219.847
524.066	1217.941
524.194	1222.695
524.322	1214.644
524.450	1224.763
524.578	1207.975
524.706	1235.669
524.835	1219.941
524.963	1234.390
525.091	1221.466
525.219	1237.593
525.347	1229.322
525.475	1231.907
525.603	1228.746
525.731	1236.805
525.860	1233.788
525.988	1227.678
526.116	1217.593
526.244	1232.475
526.372	1218.992
526.500	1232.542
526.628	1251.136
526.756	1230.932
526.885	1243.890
527.013	1231.068
527.141	1238.788
527.269	1233.390
527.397	1245.831
527.525	1251.703
527.653	1246.153
527.781	1254.136
527.910	1256.695
528.038	1261.559
528.166	1262.856
528.294	1259.153
528.422	1252.508
528.550	1263.619
528.678	1275.144
528.806	1272.051
528.935	1275.534
529.063	1273.441
529.191	1280.288
529.319	1288.966
529.447	1285.500
529.575	1284.593
529.703	1279.814
529.831	1295.119
529.960	1290.525
530.088	1290.441
530.216	1301.085
530.344	1297.136
530.472	1303.153
530.600	1307.729
530.728	1316.525
530.856	1309.602
530.985	1321.390
531.113	1306.263
531.241	1312.008
531.369	1324.568
531.497	1311.271
531.625	1318.839
531.753	1311.025
531.881	1327.229
532.010	1323.500
532.138	1314.466
532.266	1319.254
532.394	1319.195
532.522	1303.525
532.650	1317.805
532.778	1333.475
532.906	1316.949
533.035	1325.966
533.163	1317.475
533.291	1317.390
533.419	1304.203
533.547	1326.771
533.675	1323.797
533.803	1307.492
533.931	1320.754
534.060	1314.881
534.188	1321.720
534.316	1326.127
534.444	1319.161
534.572	1324.805
534.700	1325.017
534.828	1324.941
534.956	1339.051
535.085	1334.720
535.213	1336.703
535.341	1347.805
535.469	1339.068
535.597	1347.966
535.725	1358.492
535.853	1357.492
535.981	1357.178
536.110	1370.873
536.238	1383.822
536.366	1381.127
536.494	1376.746
536.622	1386.347
536.750	1383.483
536.878	1385.263
537.006	1390.644
537.135	1403.881
537.263	1412.593
537.391	1405.814
537.519	1405.000
537.647	1424.644
537.775	1410.873
537.903	1423.644
538.031	1426.703
538.160	1423.458
538.288	1428.636
538.416	1432.729
538.544	1419.322
538.672	1439.415
538.800	1444.059
538.928	1438.051
539.056	1461.661
539.185	1440.051
539.313	1439.042
539.441	1459.322
539.569	1444.483
539.697	1452.686
539.825	1451.102
539.953	1455.441
540.081	1448.110
540.210	1457.669
540.338	1462.085
540.466	1470.237
540.594	1473.008
540.722	1437.720
540.850	1472.441
540.978	1463.720
541.106	1466.466
541.235	1482.890
541.363	1457.119
541.491	1465.373
541.619	1463.059
541.747	1474.288
541.875	1469.263
542.003	1470.720
542.131	1477.780
542.260	1477.203
542.388	1475.195
542.516	1487.703
542.644	1490.856
542.772	1488.144
542.900	1480.686
543.028	1497.136
543.156	1497.119
543.285	1491.585
543.413	1499.415
543.541	1499.441
543.669	1502.627
543.797	1508.229
543.925	1504.915
544.053	1503.737
544.181	1512.153
544.310	1501.356
544.438	1498.636
544.566	1499.229
544.694	1521.458
544.822	1514.703
544.950	1514.186
545.078	1519.297
545.206	1512.178
545.335	1529.958
545.463	1520.449
545.591	1520.678
545.719	1531.008
545.847	1518.966
545.975	1519.119
546.103	1519.525
546.231	1526.924
546.360	1543.254
546.488	1540.246
546.616	1535.085
546.744	1537.093
546.872	1537.975
547.000	1551.856
547.128	1537.263
547.256	1543.475
547.385	1536.822
547.513	1540.364
547.641	1542.746
547.769	1549.966
547.897	1550.576
548.025	1552.831
548.153	1569.068
548.281	1553.246
548.410	1555.008
548.538	1565.102
548.666	1565.017
548.794	1558.636
548.922	1570.331
549.050	1565.093
549.178	1559.441
549.306	1574.695
549.435	1586.008
549.563	1578.390
549.691	1573.754
549.819	1576.102
549.947	1590.153
550.075	1583.534
550.203	1571.102
550.331	1575.898
550.460	1583.907
550.588	1582.703
550.716	1593.068
550.844	1580.288
550.972	1570.644
551.100	1574.322
551.228	1579.042
551.356	1566.466
551.485	1581.034
551.613	1570.008
551.741	1556.449
551.869	1556.915
551.997	1556.331
552.125	1560.983
552.253	1567.907
552.381	1560.322
552.510	1563.864
552.638	1551.585
552.766	1564.814
552.894	1548.297
553.022	1556.475
553.150	1556.161
553.278	1552.229
553.406	1548.492
553.535	1550.644
553.663	1555.102
553.791	1552.712
553.919	1558.873
554.047	1554.559
554.175	1547.229
554.303	1553.246
554.431	1547.636
554.560	1552.297
554.688	1563.678
554.816	1552.932
554.944	1564.932
555.072	1560.305
555.200	1566.212
555.328	1556.932
555.456	1576.576
555.585	1565.127
555.713	1576.398
555.841	1578.890
555.969	1562.110
556.097	1584.763
556.225	1575.475
556.353	1603.093
556.481	1582.966
556.610	1604.703
556.738	1593.458
556.866	1604.068
556.994	1586.305
557.122	1594.686
557.250	1603.432
557.378	1617.915
557.506	1608.881
557.635	1600.788
557.763	1617.737
557.891	1630.458
558.019	1609.068
558.147	1630.119
558.275	1620.153
558.403	1632.627
558.531	1637.322
558.660	1626.424
558.788	1632.381
558.916	1628.034
559.044	1628.127
559.172	1633.737
559.300	1650.102
559.428	1646.254
559.556	1642.280
559.685	1646.966
559.813	1642.110
559.941	1652.610
560.069	1645.822
560.197	1651.169
560.325	1662.008
560.453	1649.653
560.581	1656.356
560.710	1650.534
560.838	1655.093
560.966	1645.288
561.094	1662.186
561.222	1654.492
561.350	1640.915
561.478	1647.415
561.606	1658.754
561.735	1650.085
561.863	1646.085
561.991	1647.203
562.119	1639.432
562.247	1644.822
562.375	1642.034
562.503	1659.669
562.631	1642.822
562.760	1642.593
562.888	1659.508
563.016	1644.161
563.144	1642.881
563.272	1645.924
563.400	1636.186
563.528	1650.831
563.656	1661.017
563.785	1657.686
563.913	1656.966
564.041	1633.754
564.169	1663.381
564.297	1654.797
564.425	1648.288
564.553	1675.669
564.681	1669.661
564.810	1663.458
564.938	1668.169
565.066	1657.763
565.194	1675.932
565.322	1692.822
565.450	1679.169
565.578	1689.381
565.706	1678.720
565.835	1696.178
565.963	1695.915
566.091	1683.008
566.219	1687.017
566.347	1695.093
566.475	1686.161
566.603	1700.500
566.731	1702.771
566.860	1725.051
566.988	1700.856
567.116	1729.839
567.244	1726.568
567.372	1735.568
567.500	1735.568
567.628	1735.788
567.756	1734.839
567.885	1751.814
568.013	1750.102
568.141	1763.110
568.269	1766.864
568.397	1752.898
568.525	1755.373
568.653	1769.983
568.781	1772.220
568.910	1800.466
569.038	1789.297
569.166	1780.415
569.294	1786.729
569.422	1797.017
569.550	1796.297
569.678	1800.186
569.806	1798.331
569.935	1801.305
570.063	1814.237
570.191	1824.127
570.319	1824.602
570.447	1823.347
570.575	1823.907
570.703	1830.949
570.831	1842.161
570.960	1836.458
571.088	1839.102
571.216	1839.017
571.344	1843.966
571.472	1853.864
571.600	1859.966
571.728	1851.212
571.856	1857.661
571.985	1873.068
572.113	1873.797
572.241	1869.941
572.369	1887.034
572.497	1889.178
572.625	1891.763
572.753	1879.161
572.881	1893.127
573.010	1895.085
573.138	1913.110
573.266	1898.237
573.394	1910.466
573.522	1911.127
573.650	1918.314
573.778	1909.576
573.906	1904.839
574.035	1903.695
574.163	1909.424
574.291	1910.203
574.419	1925.915
574.547	1937.407
574.675	1942.525
574.803	1937.805
574.931	1929.534
575.060	1955.805
575.188	1931.949
575.316	1935.644
575.444	1943.653
575.572	1951.288
575.700	1930.144
575.828	1952.831
575.956	1955.076
576.085	1940.339
576.213	1956.000
576.341	1941.839
576.469	1953.814
576.597	1936.576
576.725	1945.856
576.853	1940.093
576.981	1945.542
577.110	1941.246
577.238	1960.975
577.366	1945.144
577.494	1950.432
577.622	1945.983
577.750	1970.941
577.878	1950.559
578.006	1972.212
578.135	1966.271
578.263	1963.797
578.391	1975.805
578.519	1972.203
578.647	1976.119
578.775	1977.466
578.903	1960.737
579.031	1980.356
579.160	1978.780
579.288	1972.873
579.416	1968.551
579.544	1988.432
579.672	1988.076
579.800	2007.068
579.928	1983.331
580.056	1980.525
580.185	1976.949
580.313	1986.924
580.441	1997.186
580.569	1990.364
580.697	1994.203
580.825	2011.975
580.953	2021.364
581.081	2019.280
581.210	2025.263
581.338	2049.017
581.466	2027.754
581.594	2053.008
581.722	2031.432
581.850	2030.424
581.978	2048.517
582.106	2049.119
582.235	2062.576
582.363	2053.068
582.491	2060.686
582.619	2064.339
582.747	2065.229
582.875	2083.305
583.003	2085.076
583.131	2087.661
583.260	2092.619
583.388	2116.483
583.516	2120.788
583.644	2119.669
583.772	2121.788
583.900	2143.593
584.028	2150.373
584.156	2141.864
584.285	2159.958
584.413	2154.314
584.541	2167.051
584.669	2169.797
584.797	2183.966
584.925	2184.017
585.053	2190.653
585.181	2200.508
585.310	2206.856
585.438	2200.381
585.566	2209.881
585.694	2242.178
585.822	2225.169
585.950	2230.805
586.078	2244.169
586.206	2255.415
586.335	2252.449
586.463	2272.703
586.591	2277.712
586.719	2285.466
586.847	2284.322
586.975	2270.881
587.103	2299.271
587.231	2283.542
587.360	2283.898
587.488	2311.212
587.616	2294.983
587.744	2316.136
587.872	2297.619
588.000	2311.119
588.128	2318.898
588.256	2318.356
588.385	2316.712
588.513	2310.492
588.641	2314.695
588.769	2358.720
588.897	2326.712
589.025	2346.136
589.153	2327.831
589.281	2329.915
589.410	2345.449
589.538	2343.263
589.666	2348.169
589.794	2343.398
589.922	2358.958
590.050	2359.627
590.178	2343.593
590.306	2361.186
590.435	2362.127
590.563	2353.492
590.691	2381.653
590.819	2381.907
590.947	2401.907
591.075	2394.856
591.203	2381.814
591.331	2387.322
591.460	2386.720
591.588	2393.568
591.716	2413.432
591.844	2381.229
591.972	2432.797
592.100	2407.246
592.228	2396.398
592.356	2401.873
592.485	2403.661
592.613	2395.085
592.741	2440.136
592.869	2404.983
592.997	2431.381
593.125	2434.915
593.253	2451.754
593.381	2461.695
593.510	2458.322
593.638	2432.992
593.766	2452.068
593.894	2442.847
594.022	2463.220
594.150	2469.992
594.278	2480.051
594.406	2472.907
594.535	2484.653
594.663	2477.119
594.791	2489.831
594.919	2511.898
595.047	2502.797
595.175	2513.432
595.303	2513.678
595.431	2511.483
595.560	2554.517
595.688	2543.788
595.816	2567.017
595.944	2529.932
596.072	2538.432
596.200	2531.805
596.328	2538.458
596.456	2522.729
596.585	2530.771
596.713	2545.966
596.841	2573.754
596.969	2553.500
597.097	2584.246
597.225	2581.068
597.353	2605.483
597.481	2600.873
597.610	2586.975
597.738	2621.695
597.866	2608.220
597.994	2614.966
598.122	2623.246
598.250	2669.475
598.378	2632.475
598.506	2609.508
598.635	2649.280
598.763	2627.559
598.891	2665.508
599.019	2651.381
599.147	2671.636
599.275	2651.458
599.403	2678.407
599.531	2684.771
599.660	2691.415
599.788	2677.873
599.916	2685.983
600.044	2745.593
600.172	2699.161
600.300	2699.644
600.428	2680.339
600.556	2717.568
600.685	2781.076
600.813	2728.093
600.941	2765.161
601.069	2706.508
601.197	2746.517
601.325	2745.771
601.453	2724.576
601.581	2751.915
601.710	2775.025
601.838	2765.119
601.966	2853.110
602.094	2843.720
602.222	2799.398
602.350	2775.229
602.478	2802.805
602.606	2835.212
602.735	2799.814
602.863	2820.949
602.991	2847.881
603.119	2818.856
603.247	2804.737
603.375	2848.593
603.503	2850.712
603.631	2866.203
603.760	2863.254
603.888	2880.534
604.016	2859.347
604.144	2867.678
604.272	2890.415
604.400	2907.932
604.528	2899.814
604.656	2919.203
604.785	2922.932
604.913	2958.593
605.041	2902.381
605.169	2960.051
605.297	2935.780
605.425	2948.492
605.553	2945.703
605.681	2937.161
605.810	2981.517
605.938	2967.797
606.066	2966.398
606.194	2969.924
606.322	2972.186
606.450	2970.856
606.578	2959.424
606.706	2999.110
606.835	3008.788
606.963	3033.373
607.091	3029.508
607.219	2999.508
607.347	2965.432
607.475	3015.864
607.603	3011.000
607.731	2986.025
607.860	3010.263
607.988	2999.771
608.116	3041.076
608.244	3003.873
608.372	3036.441
608.500	3031.085
608.628	2991.746
608.756	2993.110
608.885	3059.975
609.013	2990.992
609.141	3012.881
609.269	2978.915
609.397	3007.314
609.525	3019.517
609.653	3033.297
609.781	3003.475
609.910	3023.331
610.038	3109.127
610.166	3026.780
610.294	3011.373
610.422	3010.873
610.550	3001.508
610.678	3009.458
610.806	3017.331
610.935	2989.246
611.063	2996.636
611.191	3030.636
611.319	3019.415
611.447	3019.678
611.575	3020.356
611.703	3010.288
611.831	3020.000
611.960	3003.542
612.088	2997.856
612.216	3007.178
612.344	3035.703
612.472	3030.415
612.600	3024.441
612.728	3027.424
612.856	2982.864
612.985	3004.364
613.113	3038.059
613.241	3042.212
613.369	3032.661
613.497	3009.890
613.625	3037.576
613.753	3009.042
613.881	3042.780
614.010	2999.907
614.138	3048.475
614.266	3027.356
614.394	3062.136
614.522	3052.627
614.650	3035.576
614.778	3045.390
614.906	3046.102
615.035	3044.881
615.163	3028.678
615.291	3089.932
615.419	3028.364
615.547	3036.203
615.675	3041.958
615.803	3075.771
615.931	3056.517
616.060	3032.119
616.188	3078.407
616.316	3079.449
616.444	3041.424
616.572	3089.297
616.700	3108.712
616.828	3083.441
616.956	3097.932
617.085	3076.398
617.213	3087.864
617.341	3103.559
617.469	3167.458
617.597	3108.424
617.725	3098.102
617.853	3103.449
617.981	3111.407
618.110	3157.153
618.238	3160.237
618.366	3102.229
618.494	3106.305
618.622	3130.669
618.750	3177.144
618.878	3166.975
619.006	3160.076
619.135	3192.025
619.263	3145.381
619.391	3162.008
619.519	3169.568
619.647	3217.678
619.775	3190.525
619.903	3197.559
620.031	3189.873
620.160	3182.288
620.288	3210.703
620.416	3210.763
620.544	3240.203
620.672	3212.559
620.800	3226.280
620.928	3218.585
621.056	3273.924
621.185	3239.992
621.313	3208.025
621.441	3239.017
621.569	3244.059
621.697	3237.492
621.825	3257.059
621.953	3211.568
622.081	3269.305
622.210	3233.559
622.338	3259.042
622.466	3277.288
622.594	3287.475
622.722	3258.983
622.850	3290.373
622.978	3319.034
623.106	3321.975
623.235	3296.280
623.363	3306.203
623.491	3283.695
623.619	3309.373
623.747	3282.669
623.875	3341.492
624.003	3286.271
624.131	3306.839
624.260	3340.483
624.388	3281.737
624.516	3313.932
624.644	3296.992
624.772	3293.169
624.900	3283.746
625.028	3294.788
625.156	3281.559
625.285	3319.398
625.413	3313.864
625.541	3305.314
625.669	3314.246
625.797	3318.644
625.925	3306.076
626.053	3297.059
626.181	3285.458
626.310	3384.729
626.438	3300.831
626.566	3314.441
626.694	3278.034
626.822	3298.653
626.950	3320.966
627.078	3278.093
627.206	3305.585
627.335	3297.856
627.463	3290.119
627.591	3318.508
627.719	3349.220
627.847	3322.958
627.975	3304.814
628.103	3329.102
628.231	3307.102
628.360	3286.153
628.488	3274.390
628.616	3288.424
628.744	3300.297
628.872	3319.458
629.000	3311.542
629.128	3302.415
629.256	3264.246
629.385	3305.432
629.513	3287.797
629.641	3304.144
629.769	3322.212
629.897	3318.085
630.025	3275.492
630.153	3353.602
630.281	3302.119
630.410	3294.525
630.538	3281.890
630.666	3305.763
630.794	3265.695
630.922	3314.653
631.050	3279.246
631.178	3308.407
631.306	3290.627
631.435	3287.788
631.563	3275.390
631.691	3339.025
631.819	3364.034
631.947	3252.347
632.075	3253.246
632.203	3319.678
632.331	3273.500
632.460	3279.585
632.588	3275.025
632.716	3265.525
632.844	3326.314
632.972	3225.297
633.100	3233.898
633.228	3270.602
633.356	3271.144
633.485	3270.339
633.613	3253.051
633.741	3267.119
633.869	3241.542
633.997	3242.356
634.125	3290.525
634.253	3249.390
634.381	3243.034
634.510	3258.492
634.638	3271.458
634.766	3315.339
634.894	3243.034
635.022	3223.220
635.150	3218.051
635.278	3251.915
635.406	3212.441
635.535	3237.915
635.663	3238.831
635.791	3169.398
635.919	3198.864
636.047	3208.610
636.175	3199.169
636.303	3202.381
636.431	3214.814
636.560	3223.331
636.688	3185.975
636.816	3204.602
636.944	3155.458
637.072	3205.771
637.200	3189.737
637.328	3191.686
637.456	3175.449
637.585	3172.042
637.713	3210.780
637.841	3182.085
637.969	3179.051
638.097	3167.525
638.225	3174.093
638.353	3163.898
638.481	3151.856
638.610	3173.805
638.738	3156.915
638.866	3155.042
638.994	3162.466
639.122	3150.949
639.250	3129.890
639.378	3187.271
639.506	3169.534
639.635	3174.949
639.763	3132.551
639.891	3159.568
640.019	3163.407
640.147	3196.636
640.275	3139.763
640.403	3115.729
640.531	3187.932
640.660	3138.280
640.788	3206.297
640.916	3157.339
641.044	3140.992
641.172	3147.907
641.300	3151.373
641.428	3153.424
641.556	3150.534
641.685	3158.110
641.813	3138.907
641.941	3159.864
642.069	3158.771
642.197	3186.085
642.325	3162.805
642.453	3129.703
642.581	3224.178
642.710	3117.542
642.838	3160.881
642.966	3136.949
643.094	3151.924
643.222	3120.458
643.350	3148.924
643.478	3174.025
643.606	3138.746
643.735	3095.534
643.863	3142.636
643.991	3142.424
644.119	3118.186
644.247	3139.839
644.375	3114.593
644.503	3155.992
644.631	3148.924
644.760	3139.203
644.888	3148.119
645.016	3128.703
645.144	3135.585
645.272	3106.144
645.400	3151.305
645.528	3148.619
645.656	3130.280
645.785	3118.703
645.913	3174.314
646.041	3124.500
646.169	3154.458
646.297	3103.669
646.425	3133.627
646.553	3097.034
646.681	3084.432
646.810	3090.763
646.938	3067.661
647.066	3045.780
647.194	3130.381
647.322	3065.619
647.450	3071.280
647.578	3063.110
647.706	3066.347
647.835	3033.729
647.963	3097.585
648.091	3034.856
648.219	3069.839
648.347	3061.059
648.475	3019.271
648.603	3028.263
648.731	2998.229
648.860	3019.169
648.988	2988.237
649.116	2999.364
649.244	2980.025
649.372	3002.847
649.500	2981.008
649.628	3010.068
649.756	2976.975
649.885	2951.822
650.013	2942.034
650.141	2944.229
650.269	2919.424
650.397	2924.805
650.525	2884.076
650.653	2949.339
650.781	2920.737
650.910	2893.034
651.038	2868.102
651.166	2846.754
651.294	2884.542
651.422	2846.975
651.550	2816.178
651.678	2834.356
651.806	2813.805
651.935	2827.127
652.063	2814.627
652.191	2817.305
652.319	2775.856
652.447	2804.805
652.575	2774.559
652.703	2794.898
652.831	2793.585
652.960	2755.729
653.088	2777.085
653.216	2770.390
653.344	2761.220
653.472	2742.186
653.600	2737.093
653.728	2727.432
653.856	2733.246
653.985	2703.992
654.113	2694.729
654.241	2702.119
654.369	2687.619
654.497	2734.025
654.625	2701.941
654.753	2670.992
654.881	2693.119
655.010	2732.576
655.138	2660.678
655.266	2669.178
655.394	2672.186
655.522	2687.263
655.650	2620.542
655.778	2711.483
655.906	2638.237
656.035	2615.390
656.163	2619.220
656.291	2622.373
656.419	2637.263
656.547	2601.305
656.675	2613.390
656.803	2624.466
656.931	2596.322
657.060	2609.932
657.188	2592.500
657.316	2588.203
657.444	2583.322
657.572	2580.492
657.700	2570.771
657.828	2552.254
657.956	2581.076
658.085	2601.432
658.213	2587.754
658.341	2550.729
658.469	2571.008
658.597	2611.678
658.725	2578.008
658.853	2538.492
658.981	2513.525
659.110	2564.627
659.238	2559.627
659.366	2534.602
659.494	2524.364
659.622	2517.924
659.750	2502.525
659.878	2492.534
660.006	2496.559
660.135	2472.068
660.263	2462.703
660.391	2561.576
660.519	2529.229
660.647	2471.898
660.775	2470.415
660.903	2447.246
661.031	2446.398
661.160	2451.517
661.288	2454.025
661.416	2458.161
661.544	2439.356
661.672	2439.695
661.800	2416.941
661.928	2427.686
662.056	2458.873
662.185	2411.449
662.313	2424.356
662.441	2454.619
662.569	2417.737
662.697	2398.000
662.825	2385.212
662.953	2381.169
663.081	2376.492
663.210	2378.042
663.338	2368.288
663.466	2372.907
663.594	2359.424
663.722	2352.347
663.850	2350.161
663.978	2327.814
664.106	2384.737
664.235	2338.042
664.363	2346.008
664.491	2335.754
664.619	2324.720
664.747	2325.983
664.875	2318.686
665.003	2314.593
665.131	2320.644
665.260	2322.381
665.388	2276.203
665.516	2288.339
665.644	2289.771
665.772	2280.932
665.900	2289.297
666.028	2282.966
666.156	2280.525
666.285	2268.720
666.413	2280.924
666.541	2265.881
666.669	2260.686
666.797	2249.339
666.925	2247.771
667.053	2269.136
667.181	2226.678
667.310	2236.441
667.438	2224.585
667.566	2209.246
667.694	2223.847
667.822	2235.407
667.950	2196.331
668.078	2198.093
668.206	2197.508
668.335	2202.246
668.463	2209.017
668.591	2180.542
668.719	2185.186
668.847	2170.619
668.975	2176.907
669.103	2173.347
669.231	2174.220
669.360	2173.314
669.488	2169.229
669.616	2142.712
669.744	2153.881
669.872	2129.814
670.000	2163.017
670.128	2126.085
670.256	2131.737
670.385	2121.780
670.513	2137.398
670.641	2099.000
670.769	2107.576
670.897	2098.805
671.025	2102.432
671.153	2100.805
671.281	2100.644
671.410	2099.653
671.538	2086.203
671.666	2083.220
671.794	2081.169
671.922	2076.280
672.050	2049.229
672.178	2070.246
672.306	2038.153
672.435	2058.449
672.563	2049.178
672.691	2034.924
672.819	2047.669
672.947	2022.831
673.075	2012.686
673.203	2004.076
673.331	2004.432
673.460	2002.025
673.588	1994.288
673.716	1999.059
673.844	1979.814
673.972	1983.195
674.100	1978.347
674.228	1983.000
674.356	1973.881
674.485	1965.763
674.613	1933.695
674.741	1949.119
674.869	1953.076
674.997	1926.856
675.125	1942.788
675.253	1900.627
675.381	1901.898
675.510	1911.373
675.638	1901.398
675.766	1896.102
675.894	1883.212
676.022	1880.873
676.150	1869.136
676.278	1876.178
676.406	1859.322
676.535	1852.619
676.663	1852.661
676.791	1829.822
676.919	1829.941
677.047	1834.475
677.175	1813.347
677.303	1825.102
677.431	1817.822
677.560	1798.737
677.688	1801.525
677.816	1782.627
677.944	1787.737
678.072	1774.153
678.200	1786.483
678.328	1761.958
678.456	1750.890
678.585	1746.975
678.713	1754.331
678.841	1732.068
678.969	1739.508
679.097	1729.763
679.225	1729.246
679.353	1726.364
679.481	1698.424
679.610	1715.415
679.738	1701.356
679.866	1692.364
679.994	1698.441
680.122	1690.644
680.250	1672.034
680.378	1673.627
680.506	1656.322
680.635	1655.780
680.763	1652.034
680.891	1648.975
681.019	1653.212
681.147	1638.127
681.275	1633.169
681.403	1615.686
681.531	1631.585
681.660	1612.568
681.788	1609.169
681.916	1607.271
682.044	1622.695
682.172	1594.754
682.300	1576.178
682.428	1603.559
682.556	1575.754
682.685	1590.822
682.813	1572.797
682.941	1570.297
683.069	1544.932
683.197	1567.381
683.325	1547.669
683.453	1558.441
683.581	1537.797
683.710	1540.831
683.838	1549.390
683.966	1536.407
684.094	1534.364
684.222	1538.085
684.350	1522.602
684.478	1529.932
684.606	1530.314
684.735	1506.864
684.863	1515.373
684.991	1503.458
685.119	1494.042
685.247	1487.568
685.375	1476.288
685.503	1493.686
685.631	1493.653
685.760	1479.288
685.888	1478.119
686.016	1473.661
686.144	1457.737
686.272	1455.102
686.400	1473.856
686.528	1451.466
686.656	1456.508
686.785	1440.924
686.913	1455.093
687.041	1440.322
687.169	1440.678
687.297	1440.754
687.425	1427.059
687.553	1419.017
687.681	1424.237
687.810	1418.212
687.938	1397.398
688.066	1413.373
688.194	1422.076
688.322	1408.186
688.450	1400.008
688.578	1396.212
688.706	1409.720
688.835	1389.305
688.963	1393.542
689.091	1390.220
689.219	1372.076
689.347	1365.119
689.475	1381.102
689.603	1358.729
689.731	1373.254
689.860	1361.017
689.988	1372.992
690.116	1362.076
690.244	1350.508
690.372	1352.898
690.500	1343.966
690.628	1338.602
690.756	1344.339
690.885	1337.263
691.013	1327.398
691.141	1325.992
691.269	1330.517
691.397	1330.907
691.525	1315.347
691.653	1324.331
691.781	1317.686
691.910	1316.941
692.038	1303.559
692.166	1297.873
692.294	1295.356
692.422	1291.712
692.550	1301.593
692.678	1282.220
692.806	1282.424
692.935	1280.907
693.063	1259.881
693.191	1260.220
693.319	1274.203
693.447	1254.915
693.575	1264.551
693.703	1251.237
693.831	1261.246
693.960	1247.178
694.088	1240.441
694.216	1229.873
694.344	1220.144
694.472	1238.788
694.600	1224.712
694.728	1224.636
694.856	1214.881
694.985	1227.186
695.113	1199.398
695.241	1203.500
695.369	1204.720
695.497	1200.008
695.625	1202.017
695.753	1194.000
695.881	1183.483
696.010	1178.593
696.138	1177.873
696.266	1168.788
696.394	1161.093
696.522	1163.000
696.650	1155.000
696.778	1162.271
696.906	1153.585
697.035	1143.042
697.163	1124.449
697.291	1142.653
697.419	1132.093
697.547	1125.585
697.675	1125.051
697.803	1120.254
697.931	1118.017
698.060	1106.881
698.188	1101.339
698.316	1111.441
698.444	1094.314
698.572	1088.314
698.700	1097.246
698.828	1085.669
698.956	1072.881
699.085	1071.008
699.213	1066.771
699.341	1063.186
699.469	1068.331
699.597	1065.958
699.725	1064.864
699.853	1038.975
699.981	1052.771
700.110	1042.102
700.238	1038.458
700.366	1028.034
700.494	1032.669
700.622	1026.085
700.750	1013.068
700.878	1026.593
701.006	1013.144
701.135	1015.085
701.263	1014.661
701.391	1001.695
701.519	1009.034
701.647	996.076
701.775	994.127
701.903	987.508
702.031	981.941
702.160	990.025
702.288	977.025
702.416	973.746
702.544	975.364
702.672	967.280
702.800	968.415
702.928	974.127
703.056	965.907
703.185	955.475
703.313	954.263
703.441	952.008
703.569	955.195
703.697	946.610
703.825	935.500
703.953	949.814
704.081	932.585
704.210	932.059
704.338	929.441
704.466	919.381
704.594	918.025
704.722	925.525
704.850	913.127
704.978	912.127
705.106	917.424
705.235	896.220
705.363	898.500
705.491	902.847
705.619	893.542
705.747	887.746
705.875	886.051
706.003	878.763
706.131	882.661
706.260	877.771
706.388	870.805
706.516	870.153
706.644	861.263
706.772	862.542
706.900	855.568
707.028	853.839
707.156	842.534
707.285	846.331
707.413	839.042
707.541	835.339
707.669	825.398
707.797	831.695
707.925	824.178
708.053	825.373
708.181	817.746
708.310	819.254
708.438	816.025
708.566	808.085
708.694	811.059
708.822	806.076
708.950	807.059
709.078	794.347
709.206	796.966
709.335	787.246
709.463	786.771
709.591	788.873
709.719	775.246
709.847	775.407
709.975	773.958
710.103	772.475
710.231	765.229
710.360	762.449
710.488	754.932
710.616	750.585
710.744	746.847
710.872	754.822
711.000	751.508
711.128	732.297
711.256	733.178
711.385	739.212
711.513	735.373
711.641	725.525
711.769	725.051
711.897	725.983
712.025	713.958
712.153	719.110
712.281	717.703
712.410	713.771
712.538	707.610
712.666	700.237
712.794	700.619
712.922	700.381
713.050	698.873
713.178	699.695
713.306	697.441
713.435	696.525
713.563	686.822
713.691	684.864
713.819	685.093
713.947	676.754
714.075	679.364
714.203	676.373
714.331	669.441
714.460	665.966
714.588	662.229
714.716	656.034
714.844	654.924
714.972	649.517
715.100	656.534
715.228	654.695
715.356	646.839
715.485	650.636
715.613	649.737
715.741	643.805
715.869	640.763
715.997	634.593
716.125	626.280
716.253	629.771
716.381	630.551
716.510	633.619
716.638	634.280
716.766	621.076
716.894	618.102
717.022	621.771
717.150	614.322
717.278	618.119
717.406	611.966
717.535	611.644
717.663	610.856
717.791	607.814
717.919	597.754
718.047	598.822
718.175	604.347
718.303	604.314
718.431	594.602
718.560	591.144
718.688	589.347
718.816	590.153
718.944	586.432
719.072	587.602
719.200	585.068
719.328	577.305
719.456	579.746
719.585	586.153
719.713	576.568
719.841	574.814
719.969	562.136
720.097	564.263
720.225	565.466
720.353	566.381
720.481	563.407
720.610	559.458
720.738	553.085
720.866	553.203
720.994	556.763
721.122	554.661
721.250	553.331
721.378	549.915
721.506	550.686
721.635	542.992
721.763	541.220
721.891	539.110
722.019	537.797
722.147	533.398
722.275	532.525
722.403	526.415
722.531	524.966
722.660	526.322
722.788	526.966
722.916	519.314
723.044	521.144
723.172	519.576
723.300	510.839
723.428	518.373
723.556	508.822
723.685	511.839
723.813	508.212
723.941	505.136
724.069	508.669
724.197	505.373
724.325	499.119
724.453	494.763
724.581	500.466
724.710	494.034
724.838	495.610
724.966	482.966
725.094	479.636
725.222	482.153
725.350	480.644
725.478	484.483
725.606	481.534
725.735	476.034
725.863	476.856
725.991	468.441
726.119	471.458
726.247	463.890
726.375	466.364
726.503	463.441
726.631	459.568
726.760	456.314
726.888	459.153
727.016	450.898
727.144	454.780
727.272	449.576
727.400	447.686
727.528	448.729
727.656	444.771
727.785	443.737
727.913	444.051
728.041	438.568
728.169	440.585
728.297	433.797
728.425	429.492
728.553	435.559
728.681	428.975
728.810	425.508
728.938	422.585
729.066	431.136
729.194	427.229
729.322	419.339
729.450	415.127
729.578	417.288
729.706	412.576
729.835	417.568
729.963	412.093
730.091	408.619
730.219	408.127
730.347	411.059
730.475	403.703
730.603	402.966
730.731	403.076
730.860	400.890
730.988	398.136
731.116	396.627
731.244	393.347
731.372	397.992
731.500	392.475
731.628	394.237
731.756	393.424
731.885	384.203
732.013	386.305
732.141	384.975
732.269	381.195
732.397	383.347
732.525	379.864
732.653	378.822
732.781	374.602
732.910	378.720
733.038	378.229
733.166	375.373
733.294	375.686
733.422	374.661
733.550	365.703
733.678	371.093
733.806	371.229
733.935	369.475
734.063	358.407
734.191	367.254
734.319	362.331
734.447	364.229
734.575	362.347
734.703	360.737
734.831	354.966
734.960	354.534
735.088	351.593
735.216	352.695
735.344	353.153
735.472	350.847
735.600	352.746
735.728	347.220
735.856	344.805
735.985	343.373
736.113	346.492
736.241	342.034
736.369	345.483
736.497	343.059
736.625	340.805
736.753	343.237
736.881	334.195
737.010	338.008
737.138	334.127
737.266	334.220
737.394	335.958
737.522	331.551
737.650	331.271
737.778	332.280
737.906	330.415
738.035	326.975
738.163	327.381
738.291	327.542
738.419	322.720
738.547	324.508
738.675	324.966
738.803	319.873
738.931	319.203
739.060	322.288
739.188	317.797
739.316	316.746
739.444	318.144
739.572	316.186
739.700	314.000
739.828	310.949
739.956	312.695
740.085	309.568
740.213	308.873
740.341	306.110
740.469	309.534
740.597	304.042
740.725	303.127
740.853	303.093
740.981	301.280
741.110	302.364
741.238	304.339
741.366	301.873
741.494	298.246
741.622	296.720
741.750	299.932
741.878	299.229
742.006	297.331
742.135	291.475
742.263	296.602
742.391	291.110
742.519	295.093
742.647	288.958
742.775	294.237
742.903	288.797
743.031	288.941
743.160	288.593
743.288	288.568
743.416	285.619
743.544	282.373
743.672	286.593
743.800	283.797
743.928	284.966
744.056	279.720
744.185	284.237
744.313	281.771
744.441	282.983
744.569	276.720
744.697	277.441
744.825	276.034
744.953	275.017
745.081	273.051
745.210	276.466
745.338	273.890
745.466	273.186
745.594	268.839
745.722	272.280
745.850	265.398
745.978	269.644
746.106	267.678
746.235	266.339
746.363	266.653
746.491	264.780
746.619	263.229
746.747	259.127
746.875	259.237
747.003	264.712
747.131	260.178
747.260	258.398
747.388	260.432
747.516	260.085
747.644	258.737
747.772	258.720
747.900	254.449
748.028	254.636
748.156	251.873
748.285	254.873
748.413	251.720
748.541	252.864
748.669	248.525
748.797	251.602
748.925	247.017
749.053	249.805
749.181	246.381
749.310	247.941
749.438	244.703
749.566	246.788
749.694	242.627
749.822	246.025
749.950	244.542
750.078	243.314
750.206	239.542
750.335	240.788
750.463	242.695
750.591	240.881
750.719	241.898
750.847	234.144
750.975	236.288
751.103	239.568
751.231	236.203
751.360	237.076
751.488	233.958
751.616	235.237
751.744	232.398
751.872	231.856
752.000	232.949
752.128	231.068
752.256	229.381
752.385	230.500
752.513	230.076
752.641	226.729
752.769	228.975
752.897	226.712
753.025	218.017
753.153	223.797
753.281	223.508
753.410	223.466
753.538	224.898
753.666	224.788
753.794	224.466
753.922	221.585
754.050	223.314
754.178	220.339
754.306	213.619
754.435	217.814
754.563	221.475
754.691	216.856
754.819	216.017
754.947	215.627
755.075	218.322
755.203	216.415
755.331	214.483
755.460	216.737
755.588	212.602
755.716	212.898
755.844	209.627
755.972	212.983
756.100	214.653
756.228	209.958
756.356	209.441
756.485	209.915
756.613	209.712
756.741	210.271
756.869	209.610
756.997	210.585
757.125	209.780
757.253	206.992
757.381	206.373
757.510	209.110
757.638	204.246
757.766	205.246
757.894	203.517
758.022	203.669
758.150	204.729
758.278	203.220
758.406	201.636
758.535	201.576
758.663	202.602
758.791	201.432
758.919	201.102
759.047	201.119
759.175	200.246
759.303	197.585
759.431	199.161
759.560	197.203
759.688	197.492
759.816	200.059
759.944	196.585
760.072	194.220
760.200	194.466
760.328	194.661
760.456	195.975
760.585	194.602
760.713	193.669
760.841	191.212
760.969	193.610
761.097	190.966
761.225	192.669
761.353	190.008
761.481	189.814
761.610	191.458
761.738	189.475
761.866	189.568
761.994	191.059
762.122	188.653
762.250	187.212
762.378	186.297
762.506	188.763
762.635	187.949
762.763	187.297
762.891	188.483
763.019	186.220
763.147	185.347
763.275	184.119
763.403	182.339
763.531	181.432
763.660	183.636
763.788	182.992
763.916	184.161
764.044	182.483
764.172	182.203
764.300	184.085
764.428	181.110
764.556	181.322
764.685	180.449
764.813	178.992
764.941	178.636
765.069	178.814
765.197	175.890
765.325	174.034
765.453	177.102
765.581	178.508
765.710	177.593
765.838	175.737
765.966	175.949
766.094	175.076
766.222	173.881
766.350	174.720
766.478	173.924
766.606	177.415
766.735	172.178
766.863	172.364
766.991	173.966
767.119	169.992
767.247	169.661
767.375	170.941
767.503	168.822
767.631	170.695
767.760	171.720
767.888	169.508
768.016	170.314
768.144	168.034
768.272	167.593
768.400	169.093
768.528	168.508
768.656	165.322
768.785	166.847
768.913	168.093
769.041	166.669
769.169	165.220
769.297	166.551
769.425	164.890
769.553	165.949
769.681	163.771
769.810	164.780
769.938	163.678
770.066	164.169
770.194	162.941
770.322	164.585
770.450	165.314
770.578	162.517
770.706	163.119
770.835	161.602
770.963	163.186
771.091	160.475
771.219	160.898
771.347	160.263
771.475	162.220
771.603	160.890
771.731	159.890
771.860	160.602
771.988	160.975
772.116	159.517
772.244	156.619
772.372	158.280
772.500	159.322
772.628	159.246
772.756	158.237
772.885	160.398
773.013	157.890
773.141	156.119
773.269	158.483
773.397	156.780
773.525	155.737
773.653	155.890
773.781	154.280
773.910	153.992
774.038	155.619
774.166	154.958
774.294	155.169
774.422	153.720
774.550	153.424
774.678	152.669
774.806	153.602
774.935	154.712
775.063	152.805
775.191	155.746
775.319	152.356
775.447	152.780
775.575	153.246
775.703	151.263
775.831	152.169
775.960	149.042
776.088	148.517
776.216	151.907
776.344	148.068
776.472	152.983
776.600	151.500
776.728	148.856
776.856	148.661
776.985	146.644
777.113	150.788
777.241	147.941
777.369	148.686
777.497	146.449
777.625	148.347
777.753	145.890
777.881	146.525
778.010	147.025
778.138	146.949
778.266	143.695
778.394	146.169
778.522	147.822
778.650	147.263
778.778	144.500
778.906	145.288
779.035	146.322
779.163	144.356
779.291	143.203
779.419	143.864
779.547	145.093
779.675	145.246
779.803	142.186
779.931	142.153
780.060	143.483
780.188	143.627
780.316	143.068
780.444	144.449
780.572	140.669
780.700	143.008
780.828	143.161
780.956	143.195
781.085	143.839
781.213	140.314
781.341	143.780
781.469	142.805
781.597	142.153
781.725	141.220
781.853	140.780
781.981	141.161
782.110	140.314
782.238	140.297
782.366	138.568
782.494	139.822
782.622	140.873
782.750	140.102
782.878	141.051
783.006	138.424
783.135	138.288
783.263	137.466
783.391	137.356
783.519	138.076
783.647	136.593
783.775	138.941
783.903	136.593
784.031	134.364
784.160	135.314
784.288	138.110
784.416	136.339
784.544	135.890
784.672	135.517
784.800	137.127
784.928	133.847
785.056	134.805
785.185	134.856
785.313	132.746
785.441	134.483
785.569	134.958
785.697	135.068
785.825	132.949
785.953	132.695
786.081	134.008
786.210	134.220
786.338	134.331
786.466	133.678
786.594	133.322
786.722	131.831
786.850	131.881
786.978	132.661
787.106	133.127
787.235	132.017
787.363	133.229
787.491	131.636
787.619	131.119
787.747	131.619
787.875	132.771
788.003	129.686
788.131	129.356
788.260	130.415
788.388	131.593
788.516	129.212
788.644	129.619
788.772	130.119
788.900	131.203
789.028	129.542
789.156	129.847
789.285	129.144
789.413	130.237
789.541	130.127
789.669	128.695
789.797	127.941
789.925	129.144
790.053	128.754
790.181	128.576
790.310	127.314
790.438	127.517
790.566	128.932
790.694	129.169
790.822	127.042
790.950	126.576
791.078	127.653
791.206	126.271
791.335	127.008
791.463	127.008
791.591	127.102
791.719	126.703
791.847	126.119
791.975	123.763
792.103	125.280
792.231	126.610
792.360	127.042
792.488	125.305
792.616	127.593
792.744	124.941
792.872	123.941
793.000	125.449
793.128	124.890
793.256	125.093
793.385	124.525
793.513	123.644
793.641	126.093
793.769	124.339
793.897	125.864
794.025	124.576
794.153	125.898
794.281	124.686
794.410	123.025
794.538	123.331
794.666	124.297
794.794	123.525
794.922	123.161
795.050	121.737
795.178	122.661
795.306	120.551
795.435	123.712
795.563	124.424
795.691	122.627
795.819	121.339
795.947	121.347
796.075	121.915
796.203	123.288
796.331	122.398
796.460	121.771
796.588	120.432
796.716	120.754
796.844	121.551
796.972	121.347
797.100	121.000
797.228	123.008
797.356	123.025
797.485	121.364
797.613	120.551
797.741	122.220
797.869	121.220
797.997	119.763
798.125	120.305
798.253	121.102
798.381	120.381
798.510	120.407
798.638	119.500
798.766	120.051
798.894	118.534
799.022	118.229
799.150	119.110
799.278	120.068
799.406	120.653
799.535	120.195
799.663	119.839
799.791	117.864
799.919	119.000
800.047	119.856
800.175	118.356
800.303	119.492
800.431	118.297
800.560	118.305
800.688	118.636
800.816	118.466
800.944	117.492
801.072	118.958
801.200	120.508
801.328	118.136
801.456	118.992
801.585	118.602
801.713	119.068
801.841	119.839
801.969	119.814
802.097	118.025
802.225	119.703
802.353	118.195
802.481	117.059
802.610	117.356
802.738	117.924
802.866	118.220
802.994	116.737
803.122	117.263
803.250	117.746
803.378	117.992
803.506	117.085
803.635	116.966
803.763	117.932
803.891	115.669
804.019	116.263
804.147	115.297
804.275	115.703
804.403	116.051
804.531	115.339
804.660	115.873
804.788	115.932
804.916	115.602
805.044	115.814
805.172	116.771
805.300	115.322
805.428	115.085
805.556	115.085
805.685	116.517
805.813	116.644
805.941	113.483
806.069	114.788
806.197	115.195
806.325	114.907
806.453	116.186
806.581	115.585
806.710	114.102
806.838	114.500
806.966	116.051
807.094	113.339
807.222	115.025
807.350	115.517
807.478	113.856
807.606	114.136
807.735	114.314
807.863	114.814
807.991	114.915
808.119	113.059
808.247	114.161
808.375	114.407
808.503	114.254
808.631	113.975
808.760	114.424
808.888	113.381
809.016	113.466
809.144	114.203
809.272	113.856
809.400	116.246
809.528	113.568
809.656	112.585
809.785	112.254
809.913	113.407
810.041	113.415
810.169	113.415
810.297	113.102
810.425	113.076
810.553	112.203
810.681	113.331
810.810	112.873
810.938	113.237
811.066	112.339
811.194	111.424
811.322	112.483
811.450	113.441
811.578	113.644
811.706	113.839
811.835	113.017
811.963	112.780
812.091	112.407
812.219	113.246
812.347	111.195
812.475	112.500
812.603	112.042
812.731	112.068
812.860	112.314
812.988	111.924
813.116	111.966
813.244	112.788
813.372	112.271
813.500	112.271
813.628	112.424
813.756	109.890
813.885	111.881
814.013	112.161
814.141	113.203
814.269	112.186
814.397	111.712
814.525	111.237
814.653	111.186
814.781	111.661
814.910	111.364
815.038	112.559
815.166	112.212
815.294	112.136
815.422	111.975
815.550	111.229
815.678	110.576
815.806	112.051
815.935	111.339
816.063	111.161
816.191	112.051
816.319	111.000
816.447	111.780
816.575	112.271
816.703	111.746
816.831	111.627
816.960	111.847
817.088	111.856
817.216	110.661
817.344	112.025
817.472	110.805
817.600	110.619
817.728	109.814
817.856	110.475
817.985	110.644
818.113	110.068
818.241	110.331
818.369	110.051
818.497	110.661
818.625	109.771
818.753	109.847
818.881	111.432
819.010	110.390
819.138	110.780
819.266	111.025
819.394	109.686
819.522	109.686
819.650	110.314
819.778	109.797
819.906	109.525
820.035	109.042
820.163	109.432
820.291	108.568
820.419	108.780
820.547	110.059
820.675	109.136
820.803	110.186
820.931	109.339
821.060	108.093
821.188	109.576
821.316	109.263
821.444	109.407
821.572	109.822
821.700	109.805
821.828	109.610
821.956	109.407
822.085	109.153
822.213	109.356
822.341	109.297
822.469	108.669
822.597	108.542
822.725	109.941
822.853	109.068
822.981	108.610
823.110	108.746
823.238	107.314
823.366	110.203
823.494	107.627
823.622	107.542
823.750	108.254
823.878	106.856
824.006	109.924
824.135	108.381
824.263	108.983
824.391	108.203
824.519	109.153
824.647	108.890
824.775	110.212
824.903	110.085
825.031	109.432
825.160	109.102
825.288	108.432
825.416	108.720
825.544	108.653
825.672	108.975
825.800	108.551
825.928	108.720
826.056	108.415
826.185	108.093
826.313	108.619
826.441	107.805
826.569	107.873
826.697	107.441
826.825	108.780
826.953	107.890
827.081	107.195
827.210	107.576
827.338	107.042
827.466	108.178
827.594	108.686
827.722	108.508
827.850	107.771
827.978	107.186
828.106	107.907
828.235	109.568
828.363	108.432
828.491	107.949
828.619	107.381
828.747	107.856
828.875	108.195
829.003	108.831
829.131	108.754
829.260	108.220
829.388	107.898
829.516	107.754
829.644	107.619
829.772	108.246
829.900	107.585
830.028	108.246
830.156	108.263
830.285	107.534
830.413	107.831
830.541	107.169
830.669	107.373
830.797	107.042
830.925	106.559
831.053	107.000
831.181	106.797
831.310	108.492
831.438	108.093
831.566	107.381
831.694	106.890
831.822	107.271
831.950	106.695
832.078	107.119
832.206	106.949
832.335	106.424
832.463	108.025
832.591	107.432
832.719	106.627
832.847	107.280
832.975	106.839
833.103	107.212
833.231	107.466
833.360	107.517
833.488	107.619
833.616	107.254
833.744	105.847
833.872	106.263
834.000	107.932
834.128	107.110
834.256	107.127
834.385	107.051
834.513	107.229
834.641	105.636
834.769	106.220
834.897	106.593
835.025	106.008
835.153	106.203
835.281	106.703
835.410	107.492
835.538	107.203
835.666	106.831
835.794	106.619
835.922	107.585
836.050	106.475
836.178	107.076
836.306	106.331
836.435	106.322
836.563	106.051
836.691	107.025
836.819	107.559
836.947	106.178
837.075	106.669
837.203	105.788
837.331	106.093
837.460	106.831
837.588	106.398
837.716	106.364
837.844	106.076
837.972	106.390
838.100	106.992
838.228	105.780
838.356	105.280
838.485	104.339
838.613	106.076
838.741	106.585
838.869	106.000
838.997	105.839
839.125	104.763
839.253	104.797
839.381	106.331
839.510	105.110
839.638	105.373
839.766	104.780
839.894	106.068
840.022	106.466
840.150	106.407
840.278	105.627
840.406	106.619
840.535	106.229
840.663	105.195
840.791	104.695
840.919	106.042
841.047	105.746
841.175	105.559
841.303	105.458
841.431	105.805
841.560	106.017
841.688	106.000
841.816	106.847
841.944	105.915
842.072	105.797
842.200	105.025
842.328	106.500
842.456	105.119
842.585	106.339
842.713	105.517
842.841	106.347
842.969	105.025
843.097	105.517
843.225	104.407
843.353	105.576
843.481	105.466
843.610	105.364
843.738	105.025
843.866	104.449
