70-80-0_at_679.99nm_cut_at_1283.50Y_01.dat
24.01.2024
11:27:19
cut middle at Y: 1283.50
top cursor: 1343 down cursor: 1224 mean of: 119 lines , 2560 datapoints
wavelength(nm)	intensity[arb. units]
515.994	405.563
516.122	386.529
516.250	382.706
516.378	378.958
516.506	378.261
516.635	380.319
516.763	389.697
516.891	382.277
517.019	387.345
517.147	385.151
517.275	389.992
517.403	387.706
517.531	387.689
517.660	381.529
517.788	390.773
517.916	392.992
518.044	386.697
518.172	388.748
518.300	393.479
518.428	390.807
518.556	391.924
518.685	392.286
518.813	395.303
518.941	396.874
519.069	391.193
519.197	398.059
519.325	395.815
519.453	393.798
519.581	403.588
519.710	402.664
519.838	401.412
519.966	400.134
520.094	401.849
520.222	402.832
520.350	400.311
520.478	404.655
520.606	409.202
520.735	405.966
520.863	411.479
520.991	415.941
521.119	407.420
521.247	415.891
521.375	411.605
521.503	419.588
521.631	417.697
521.760	418.454
521.888	418.882
522.016	422.437
522.144	418.143
522.272	426.361
522.400	427.437
522.528	430.403
522.656	425.445
522.785	428.555
522.913	426.933
523.041	429.655
523.169	425.891
523.297	434.639
523.425	434.034
523.553	431.975
523.681	429.059
523.810	432.815
523.938	439.487
524.066	434.824
524.194	434.479
524.322	434.353
524.450	432.076
524.578	439.025
524.706	441.857
524.835	434.571
524.963	440.294
525.091	435.555
525.219	435.655
525.347	434.647
525.475	434.832
525.603	436.689
525.731	440.017
525.860	441.647
525.988	437.328
526.116	436.908
526.244	439.849
526.372	438.454
526.500	440.832
526.628	445.832
526.756	433.580
526.885	439.765
527.013	442.697
527.141	436.160
527.269	441.429
527.397	446.370
527.525	441.798
527.653	439.008
527.781	442.639
527.910	449.613
528.038	443.571
528.166	443.782
528.294	448.311
528.422	446.084
528.550	450.387
528.678	448.664
528.806	449.059
528.935	450.790
529.063	450.471
529.191	450.916
529.319	454.941
529.447	454.723
529.575	454.277
529.703	452.034
529.831	457.261
529.960	452.210
530.088	456.076
530.216	461.992
530.344	454.387
530.472	458.882
530.600	460.387
530.728	459.773
530.856	459.739
530.985	459.118
531.113	460.437
531.241	465.773
531.369	467.160
531.497	457.244
531.625	463.160
531.753	465.992
531.881	464.126
532.010	468.277
532.138	461.328
532.266	463.336
532.394	457.815
532.522	467.681
532.650	461.235
532.778	470.017
532.906	464.361
533.035	459.807
533.163	464.538
533.291	460.017
533.419	454.748
533.547	466.950
533.675	463.622
533.803	462.193
533.931	455.950
534.060	463.513
534.188	467.261
534.316	465.605
534.444	462.118
534.572	464.168
534.700	464.496
534.828	469.168
534.956	466.084
535.085	464.445
535.213	468.000
535.341	470.975
535.469	475.538
535.597	473.479
535.725	476.420
535.853	476.437
535.981	468.319
536.110	480.639
536.238	481.866
536.366	481.689
536.494	476.462
536.622	486.437
536.750	482.916
536.878	482.101
537.006	486.487
537.135	490.050
537.263	487.286
537.391	492.899
537.519	496.008
537.647	490.244
537.775	493.227
537.903	490.857
538.031	498.378
538.160	494.916
538.288	494.714
538.416	500.185
538.544	499.244
538.672	499.328
538.800	501.866
538.928	500.261
539.056	502.782
539.185	508.471
539.313	500.882
539.441	508.454
539.569	509.353
539.697	507.513
539.825	511.773
539.953	511.655
540.081	499.244
540.210	516.429
540.338	510.655
540.466	520.000
540.594	512.706
540.722	510.647
540.850	508.353
540.978	515.504
541.106	515.891
541.235	517.328
541.363	508.504
541.491	512.706
541.619	514.420
541.747	511.109
541.875	515.655
542.003	513.126
542.131	515.782
542.260	516.479
542.388	515.353
542.516	522.622
542.644	518.042
542.772	519.571
542.900	519.437
543.028	525.319
543.156	521.899
543.285	522.092
543.413	522.966
543.541	520.580
543.669	529.647
543.797	529.109
543.925	525.378
544.053	529.992
544.181	529.050
544.310	528.185
544.438	524.168
544.566	525.328
544.694	530.765
544.822	529.504
544.950	527.546
545.078	527.950
545.206	526.420
545.335	527.504
545.463	529.361
545.591	524.412
545.719	526.067
545.847	527.933
545.975	530.655
546.103	530.521
546.231	527.101
546.360	532.899
546.488	533.807
546.616	538.286
546.744	536.891
546.872	532.790
547.000	530.950
547.128	533.412
547.256	534.933
547.385	532.731
547.513	529.958
547.641	532.681
547.769	534.832
547.897	532.933
548.025	530.462
548.153	533.210
548.281	533.168
548.410	540.739
548.538	534.101
548.666	539.050
548.794	532.765
548.922	531.983
549.050	533.807
549.178	541.361
549.306	540.647
549.435	539.210
549.563	541.067
549.691	539.361
549.819	544.857
549.947	544.008
550.075	541.429
550.203	538.622
550.331	539.420
550.460	543.571
550.588	541.891
550.716	551.218
550.844	543.950
550.972	546.345
551.100	550.462
551.228	538.639
551.356	541.773
551.485	549.815
551.613	544.193
551.741	544.202
551.869	546.412
551.997	540.706
552.125	544.706
552.253	541.756
552.381	537.345
552.510	540.303
552.638	540.025
552.766	546.252
552.894	537.210
553.022	540.034
553.150	541.311
553.278	540.092
553.406	542.101
553.535	531.042
553.663	538.109
553.791	537.798
553.919	544.706
554.047	538.336
554.175	542.151
554.303	537.210
554.431	540.412
554.560	546.874
554.688	547.479
554.816	536.697
554.944	540.479
555.072	543.252
555.200	542.563
555.328	546.597
555.456	546.958
555.585	547.176
555.713	539.655
555.841	547.311
555.969	544.966
556.097	544.277
556.225	550.790
556.353	545.420
556.481	543.277
556.610	549.521
556.738	554.210
556.866	548.824
556.994	548.924
557.122	547.840
557.250	550.412
557.378	550.580
557.506	549.336
557.635	548.420
557.763	551.227
557.891	553.613
558.019	551.874
558.147	556.084
558.275	553.210
558.403	563.471
558.531	559.723
558.660	551.756
558.788	560.118
558.916	558.689
559.044	551.798
559.172	559.866
559.300	566.924
559.428	563.765
559.556	567.134
559.685	562.815
559.813	565.420
559.941	559.496
560.069	564.462
560.197	564.588
560.325	564.824
560.453	556.899
560.581	565.176
560.710	566.445
560.838	560.950
560.966	569.269
561.094	567.639
561.222	569.630
561.350	569.580
561.478	562.345
561.606	567.672
561.735	563.983
561.863	558.983
561.991	566.966
562.119	564.756
562.247	564.017
562.375	564.504
562.503	561.521
562.631	569.874
562.760	561.664
562.888	573.891
563.016	567.529
563.144	565.311
563.272	562.924
563.400	561.849
563.528	561.807
563.656	566.563
563.785	571.008
563.913	570.118
564.041	568.924
564.169	565.412
564.297	572.000
564.425	565.286
564.553	571.580
564.681	575.597
564.810	572.076
564.938	575.185
565.066	567.773
565.194	577.403
565.322	574.580
565.450	577.101
565.578	581.050
565.706	577.328
565.835	583.017
565.963	578.336
566.091	580.017
566.219	580.950
566.347	586.966
566.475	594.168
566.603	585.933
566.731	588.538
566.860	585.387
566.988	590.672
567.116	593.563
567.244	594.714
567.372	596.815
567.500	600.084
567.628	597.824
567.756	598.134
567.885	602.966
568.013	604.782
568.141	598.571
568.269	604.311
568.397	606.950
568.525	604.471
568.653	613.227
568.781	613.529
568.910	621.958
569.038	611.336
569.166	609.866
569.294	619.294
569.422	614.832
569.550	612.227
569.678	617.176
569.806	621.714
569.935	622.630
570.063	622.924
570.191	623.613
570.319	624.731
570.447	624.445
570.575	631.916
570.703	631.479
570.831	630.824
570.960	628.412
571.088	636.950
571.216	629.613
571.344	633.471
571.472	637.983
571.600	639.899
571.728	637.765
571.856	644.185
571.985	641.143
572.113	640.891
572.241	645.034
572.369	651.924
572.497	641.765
572.625	651.630
572.753	643.353
572.881	650.269
573.010	652.782
573.138	650.529
573.266	657.176
573.394	650.336
573.522	657.874
573.650	660.681
573.778	657.017
573.906	658.588
574.035	657.866
574.163	656.403
574.291	659.025
574.419	657.345
574.547	667.689
574.675	667.160
574.803	666.555
574.931	665.866
575.060	671.739
575.188	671.748
575.316	667.261
575.444	671.874
575.572	674.555
575.700	673.748
575.828	675.790
575.956	676.731
576.085	676.143
576.213	685.664
576.341	677.807
576.469	681.420
576.597	681.176
576.725	679.832
576.853	675.782
576.981	680.714
577.110	678.773
577.238	688.975
577.366	681.924
577.494	676.916
577.622	686.891
577.750	683.924
577.878	678.294
578.006	688.244
578.135	688.336
578.263	691.924
578.391	699.924
578.519	700.731
578.647	693.126
578.775	689.319
578.903	691.437
579.031	700.437
579.160	697.916
579.288	696.697
579.416	692.647
579.544	694.639
579.672	702.739
579.800	701.899
579.928	699.790
580.056	698.697
580.185	710.630
580.313	703.916
580.441	704.975
580.569	708.294
580.697	707.782
580.825	710.639
580.953	722.168
581.081	720.933
581.210	719.597
581.338	726.706
581.466	724.134
581.594	735.420
581.722	719.252
581.850	728.891
581.978	729.227
582.106	731.647
582.235	732.529
582.363	733.353
582.491	736.798
582.619	735.286
582.747	745.109
582.875	744.277
583.003	744.739
583.131	748.361
583.260	756.941
583.388	758.042
583.516	760.874
583.644	761.462
583.772	766.160
583.900	775.605
584.028	772.538
584.156	776.546
584.285	775.143
584.413	775.277
584.541	785.185
584.669	785.361
584.797	781.034
584.925	795.975
585.053	793.555
585.181	790.361
585.310	796.067
585.438	799.647
585.566	795.454
585.694	808.151
585.822	809.328
585.950	801.866
586.078	814.798
586.206	821.143
586.335	816.042
586.463	821.504
586.591	827.412
586.719	825.101
586.847	828.345
586.975	826.303
587.103	830.807
587.231	829.134
587.360	842.840
587.488	834.210
587.616	842.471
587.744	844.866
587.872	844.479
588.000	841.756
588.128	856.345
588.256	852.731
588.385	841.378
588.513	853.664
588.641	851.143
588.769	863.303
588.897	856.244
589.025	851.151
589.153	862.908
589.281	860.202
589.410	857.235
589.538	868.748
589.666	868.849
589.794	868.580
589.922	875.395
590.050	881.454
590.178	869.462
590.306	873.261
590.435	879.454
590.563	871.067
590.691	873.210
590.819	872.529
590.947	887.555
591.075	879.966
591.203	877.050
591.331	890.622
591.460	887.849
591.588	880.681
591.716	892.807
591.844	890.000
591.972	899.345
592.100	898.613
592.228	892.983
592.356	905.613
592.485	902.882
592.613	903.933
592.741	908.084
592.869	912.008
592.997	913.487
593.125	919.588
593.253	914.815
593.381	920.950
593.510	917.008
593.638	915.630
593.766	919.252
593.894	929.916
594.022	924.782
594.150	925.311
594.278	936.084
594.406	936.731
594.535	932.504
594.663	940.479
594.791	942.521
594.919	942.403
595.047	948.941
595.175	958.445
595.303	951.597
595.431	956.059
595.560	966.412
595.688	967.706
595.816	953.992
595.944	965.992
596.072	977.471
596.200	967.261
596.328	967.118
596.456	977.471
596.585	978.277
596.713	989.933
596.841	986.269
596.969	984.017
597.097	994.471
597.225	995.773
597.353	994.756
597.481	991.613
597.610	1006.580
597.738	1002.353
597.866	996.311
597.994	1009.412
598.122	1020.025
598.250	1013.832
598.378	1007.891
598.506	1014.521
598.635	1009.966
598.763	1026.126
598.891	1023.849
599.019	1027.689
599.147	1023.168
599.275	1029.429
599.403	1022.261
599.531	1036.790
599.660	1037.294
599.788	1044.681
599.916	1044.445
600.044	1046.950
600.172	1047.378
600.300	1057.765
600.428	1046.891
600.556	1059.059
600.685	1054.739
600.813	1058.580
600.941	1080.571
601.069	1076.975
601.197	1086.639
601.325	1073.546
601.453	1074.336
601.581	1087.765
601.710	1086.807
601.838	1084.521
601.966	1086.109
602.094	1095.874
602.222	1104.017
602.350	1099.118
602.478	1103.193
602.606	1107.462
602.735	1113.076
602.863	1123.714
602.991	1127.370
603.119	1128.336
603.247	1129.067
603.375	1125.328
603.503	1133.160
603.631	1141.345
603.760	1140.462
603.888	1146.387
604.016	1150.689
604.144	1150.445
604.272	1156.613
604.400	1158.420
604.528	1153.235
604.656	1167.832
604.785	1164.445
604.913	1169.345
605.041	1179.529
605.169	1175.521
605.297	1178.882
605.425	1185.504
605.553	1181.815
605.681	1184.210
605.810	1190.353
605.938	1190.471
606.066	1183.261
606.194	1197.697
606.322	1200.471
606.450	1206.412
606.578	1213.966
606.706	1208.202
606.835	1213.697
606.963	1214.739
607.091	1216.790
607.219	1227.017
607.347	1215.403
607.475	1228.555
607.603	1227.261
607.731	1235.773
607.860	1219.891
607.988	1228.790
608.116	1243.109
608.244	1232.697
608.372	1231.840
608.500	1240.277
608.628	1240.529
608.756	1242.210
608.885	1237.471
609.013	1248.395
609.141	1250.630
609.269	1242.689
609.397	1238.496
609.525	1239.529
609.653	1248.597
609.781	1253.597
609.910	1252.286
610.038	1252.235
610.166	1256.966
610.294	1242.084
610.422	1261.966
610.550	1267.378
610.678	1254.723
610.806	1258.681
610.935	1255.176
611.063	1262.445
611.191	1270.286
611.319	1262.571
611.447	1258.933
611.575	1261.244
611.703	1255.126
611.831	1266.244
611.960	1272.622
612.088	1273.513
612.216	1280.790
612.344	1284.866
612.472	1273.782
612.600	1286.807
612.728	1271.050
612.856	1277.916
612.985	1274.672
613.113	1277.244
613.241	1296.387
613.369	1283.639
613.497	1302.555
613.625	1282.882
613.753	1291.387
613.881	1294.311
614.010	1294.168
614.138	1296.655
614.266	1284.109
614.394	1286.824
614.522	1284.008
614.650	1297.454
614.778	1291.639
614.906	1311.076
615.035	1300.706
615.163	1298.857
615.291	1306.319
615.419	1318.218
615.547	1298.824
615.675	1323.504
615.803	1309.521
615.931	1322.303
616.060	1327.042
616.188	1328.412
616.316	1318.513
616.444	1315.748
616.572	1325.143
616.700	1331.571
616.828	1347.538
616.956	1343.571
617.085	1349.042
617.213	1349.580
617.341	1323.269
617.469	1336.622
617.597	1342.025
617.725	1343.916
617.853	1342.244
617.981	1350.479
618.110	1363.672
618.238	1354.731
618.366	1368.202
618.494	1369.807
618.622	1369.076
618.750	1363.361
618.878	1374.664
619.006	1370.689
619.135	1384.613
619.263	1384.681
619.391	1377.252
619.519	1386.479
619.647	1398.723
619.775	1392.160
619.903	1394.445
620.031	1404.008
620.160	1395.714
620.288	1404.185
620.416	1417.840
620.544	1408.739
620.672	1412.891
620.800	1413.109
620.928	1428.639
621.056	1427.101
621.185	1418.681
621.313	1417.924
621.441	1429.975
621.569	1442.580
621.697	1431.521
621.825	1444.387
621.953	1436.613
622.081	1455.832
622.210	1438.227
622.338	1452.563
622.466	1440.269
622.594	1470.126
622.722	1460.244
622.850	1466.487
622.978	1461.235
623.106	1467.008
623.235	1477.496
623.363	1472.370
623.491	1470.134
623.619	1465.857
623.747	1459.882
623.875	1477.899
624.003	1473.496
624.131	1472.118
624.260	1458.395
624.388	1481.261
624.516	1491.933
624.644	1468.689
624.772	1479.286
624.900	1485.168
625.028	1480.899
625.156	1499.235
625.285	1482.857
625.413	1483.168
625.541	1488.076
625.669	1489.597
625.797	1490.277
625.925	1488.361
626.053	1499.025
626.181	1492.605
626.310	1488.202
626.438	1477.076
626.566	1484.807
626.694	1480.303
626.822	1483.807
626.950	1492.983
627.078	1494.109
627.206	1483.050
627.335	1507.521
627.463	1484.874
627.591	1503.739
627.719	1496.437
627.847	1489.622
627.975	1494.840
628.103	1484.756
628.231	1511.303
628.360	1499.059
628.488	1502.950
628.616	1501.756
628.744	1486.697
628.872	1493.681
629.000	1502.261
629.128	1508.555
629.256	1514.513
629.385	1505.042
629.513	1490.034
629.641	1507.353
629.769	1495.017
629.897	1496.437
630.025	1501.563
630.153	1512.227
630.281	1513.655
630.410	1502.319
630.538	1511.126
630.666	1502.176
630.794	1508.765
630.922	1496.387
631.050	1498.034
631.178	1503.807
631.306	1498.538
631.435	1508.697
631.563	1503.134
631.691	1485.899
631.819	1503.933
631.947	1507.790
632.075	1501.840
632.203	1512.479
632.331	1509.151
632.460	1487.235
632.588	1500.336
632.716	1500.891
632.844	1493.908
632.972	1500.723
633.100	1500.008
633.228	1508.908
633.356	1494.471
633.485	1495.899
633.613	1507.630
633.741	1493.328
633.869	1494.193
633.997	1490.622
634.125	1492.059
634.253	1481.261
634.381	1497.832
634.510	1495.336
634.638	1468.966
634.766	1486.908
634.894	1484.563
635.022	1471.941
635.150	1476.286
635.278	1501.025
635.406	1481.773
635.535	1487.588
635.663	1494.008
635.791	1473.176
635.919	1490.202
636.047	1478.975
636.175	1471.437
636.303	1477.252
636.431	1491.353
636.560	1477.034
636.688	1474.008
636.816	1465.815
636.944	1466.429
637.072	1475.454
637.200	1461.899
637.328	1461.723
637.456	1480.336
637.585	1464.681
637.713	1469.689
637.841	1457.950
637.969	1464.756
638.097	1458.756
638.225	1468.008
638.353	1476.361
638.481	1465.798
638.610	1466.773
638.738	1451.202
638.866	1452.765
638.994	1467.790
639.122	1457.958
639.250	1457.395
639.378	1462.067
639.506	1442.504
639.635	1455.412
639.763	1444.412
639.891	1464.420
640.019	1458.874
640.147	1449.739
640.275	1443.294
640.403	1449.899
640.531	1451.588
640.660	1446.622
640.788	1454.723
640.916	1444.143
641.044	1458.529
641.172	1445.681
641.300	1456.311
641.428	1452.773
641.556	1467.042
641.685	1442.891
641.813	1438.975
641.941	1448.924
642.069	1445.891
642.197	1451.445
642.325	1440.597
642.453	1444.824
642.581	1454.882
642.710	1442.857
642.838	1443.118
642.966	1443.571
643.094	1430.924
643.222	1435.958
643.350	1437.294
643.478	1443.630
643.606	1455.824
643.735	1443.076
643.863	1431.445
643.991	1441.899
644.119	1432.479
644.247	1443.252
644.375	1441.252
644.503	1440.672
644.631	1449.395
644.760	1442.378
644.888	1445.975
645.016	1442.160
645.144	1450.992
645.272	1432.185
645.400	1437.941
645.528	1427.908
645.656	1428.992
645.785	1433.336
645.913	1423.504
646.041	1437.412
646.169	1409.588
646.297	1414.529
646.425	1423.714
646.553	1412.647
646.681	1419.731
646.810	1398.134
646.938	1421.303
647.066	1406.008
647.194	1410.193
647.322	1404.437
647.450	1394.697
647.578	1412.857
647.706	1402.924
647.835	1400.008
647.963	1389.664
648.091	1392.429
648.219	1391.487
648.347	1390.353
648.475	1382.244
648.603	1386.958
648.731	1381.420
648.860	1374.143
648.988	1373.513
649.116	1373.244
649.244	1360.773
649.372	1352.361
649.500	1356.966
649.628	1355.387
649.756	1350.454
649.885	1345.605
650.013	1337.571
650.141	1333.008
650.269	1328.798
650.397	1328.370
650.525	1332.504
650.653	1329.084
650.781	1327.454
650.910	1317.101
651.038	1308.370
651.166	1309.420
651.294	1303.613
651.422	1299.773
651.550	1292.185
651.678	1284.403
651.806	1285.773
651.935	1289.739
652.063	1275.412
652.191	1267.084
652.319	1274.294
652.447	1263.252
652.575	1258.916
652.703	1254.025
652.831	1249.916
652.960	1242.513
653.088	1241.092
653.216	1232.731
653.344	1235.874
653.472	1237.202
653.600	1231.008
653.728	1223.866
653.856	1219.664
653.985	1228.008
654.113	1219.303
654.241	1221.739
654.369	1214.303
654.497	1221.143
654.625	1209.882
654.753	1213.807
654.881	1212.143
655.010	1206.454
655.138	1200.042
655.266	1189.143
655.394	1179.420
655.522	1186.328
655.650	1180.672
655.778	1187.563
655.906	1175.008
656.035	1173.244
656.163	1181.765
656.291	1168.529
656.419	1168.798
656.547	1172.479
656.675	1153.857
656.803	1159.160
656.931	1145.227
657.060	1154.613
657.188	1148.050
657.316	1147.513
657.444	1148.168
657.572	1136.311
657.700	1133.723
657.828	1137.639
657.956	1133.345
658.085	1144.252
658.213	1122.345
658.341	1122.790
658.469	1122.782
658.597	1123.866
658.725	1122.563
658.853	1107.580
658.981	1106.782
659.110	1107.916
659.238	1107.193
659.366	1104.891
659.494	1099.630
659.622	1096.429
659.750	1095.437
659.878	1091.092
660.006	1089.891
660.135	1087.277
660.263	1078.277
660.391	1075.311
660.519	1072.235
660.647	1071.891
660.775	1067.429
660.903	1069.076
661.031	1063.933
661.160	1067.790
661.288	1060.521
661.416	1071.134
661.544	1060.588
661.672	1046.798
661.800	1054.353
661.928	1049.639
662.056	1041.975
662.185	1041.437
662.313	1039.605
662.441	1038.815
662.569	1041.034
662.697	1041.504
662.825	1039.319
662.953	1032.521
663.081	1017.193
663.210	1026.487
663.338	1025.000
663.466	1024.555
663.594	1012.067
663.722	1012.261
663.850	1011.891
663.978	1003.050
664.106	1011.933
664.235	1003.807
664.363	1000.269
664.491	997.319
664.619	991.370
664.747	998.706
664.875	995.597
665.003	985.924
665.131	987.756
665.260	982.882
665.388	973.244
665.516	978.723
665.644	981.168
665.772	973.773
665.900	972.790
666.028	970.050
666.156	966.689
666.285	963.487
666.413	967.723
666.541	962.008
666.669	962.815
666.797	947.714
666.925	943.000
667.053	953.756
667.181	945.210
667.310	941.739
667.438	932.176
667.566	936.445
667.694	942.941
667.822	938.050
667.950	934.790
668.078	921.815
668.206	932.613
668.335	925.059
668.463	931.815
668.591	918.664
668.719	917.471
668.847	907.807
668.975	905.773
669.103	915.420
669.231	909.840
669.360	903.983
669.488	908.807
669.616	901.445
669.744	900.454
669.872	885.168
670.000	899.857
670.128	881.227
670.256	887.639
670.385	878.050
670.513	892.950
670.641	877.227
670.769	880.345
670.897	868.857
671.025	866.832
671.153	868.966
671.281	879.076
671.410	873.193
671.538	864.765
671.666	864.092
671.794	858.950
671.922	854.664
672.050	854.815
672.178	854.143
672.306	842.849
672.435	847.000
672.563	845.882
672.691	838.504
672.819	839.908
672.947	832.471
673.075	826.412
673.203	824.059
673.331	824.891
673.460	818.479
673.588	813.731
673.716	822.025
673.844	817.546
673.972	823.269
674.100	813.101
674.228	810.613
674.356	806.269
674.485	810.815
674.613	792.748
674.741	794.983
674.869	792.210
674.997	789.874
675.125	785.429
675.253	780.227
675.381	777.168
675.510	777.353
675.638	770.504
675.766	774.235
675.894	767.513
676.022	767.639
676.150	760.756
676.278	761.378
676.406	764.042
676.535	752.420
676.663	750.958
676.791	748.815
676.919	746.899
677.047	741.218
677.175	741.521
677.303	743.101
677.431	729.874
677.560	727.487
677.688	721.992
677.816	721.328
677.944	718.378
678.072	720.807
678.200	720.908
678.328	710.681
678.456	714.571
678.585	703.160
678.713	701.479
678.841	703.563
678.969	697.462
679.097	697.958
679.225	695.134
679.353	700.950
679.481	677.958
679.610	687.185
679.738	680.975
679.866	684.471
679.994	675.714
680.122	683.588
680.250	670.244
680.378	672.126
680.506	669.731
680.635	665.437
680.763	663.807
680.891	655.563
681.019	658.882
681.147	656.261
681.275	652.756
681.403	648.529
681.531	654.101
681.660	647.210
681.788	641.555
681.916	641.168
682.044	644.664
682.172	636.286
682.300	633.168
682.428	632.437
682.556	628.891
682.685	624.555
682.813	628.496
682.941	619.966
683.069	621.731
683.197	624.361
683.325	616.756
683.453	619.571
683.581	607.866
683.710	609.782
683.838	615.706
683.966	611.445
684.094	610.597
684.222	603.563
684.350	601.445
684.478	601.748
684.606	603.513
684.735	595.647
684.863	595.513
684.991	591.731
685.119	586.185
685.247	588.681
685.375	581.000
685.503	586.588
685.631	584.681
685.760	575.244
685.888	579.546
686.016	574.630
686.144	575.067
686.272	570.798
686.400	578.176
686.528	574.008
686.656	575.143
686.785	564.454
686.913	567.134
687.041	567.756
687.169	563.303
687.297	566.832
687.425	558.151
687.553	556.210
687.681	558.866
687.810	550.529
687.938	552.756
688.066	547.899
688.194	555.235
688.322	547.521
688.450	547.630
688.578	544.252
688.706	549.655
688.835	544.513
688.963	544.571
689.091	541.353
689.219	537.286
689.347	534.168
689.475	537.202
689.603	527.092
689.731	531.504
689.860	528.824
689.988	534.176
690.116	529.412
690.244	523.227
690.372	526.361
690.500	523.118
690.628	516.597
690.756	517.807
690.885	521.193
691.013	516.597
691.141	516.185
691.269	516.202
691.397	519.891
691.525	514.311
691.653	514.160
691.781	514.319
691.910	507.756
692.038	503.202
692.166	502.403
692.294	500.353
692.422	504.126
692.550	503.605
692.678	499.294
692.806	498.261
692.935	493.076
693.063	497.420
693.191	483.773
693.319	487.563
693.447	483.992
693.575	488.084
693.703	486.471
693.831	483.529
693.960	482.588
694.088	481.151
694.216	479.513
694.344	478.748
694.472	473.739
694.600	472.395
694.728	469.176
694.856	467.462
694.985	470.218
695.113	471.739
695.241	463.798
695.369	461.992
695.497	463.874
695.625	467.941
695.753	459.403
695.881	456.496
696.010	455.739
696.138	456.723
696.266	450.445
696.394	447.050
696.522	449.319
696.650	446.025
696.778	444.723
696.906	445.773
697.035	440.235
697.163	433.336
697.291	438.345
697.419	439.563
697.547	434.227
697.675	436.664
697.803	432.924
697.931	427.521
698.060	431.664
698.188	427.731
698.316	432.168
698.444	423.303
698.572	422.824
698.700	419.084
698.828	422.571
698.956	413.000
699.085	412.193
699.213	412.454
699.341	409.151
699.469	410.941
699.597	417.437
699.725	410.588
699.853	404.067
699.981	405.370
700.110	405.555
700.238	404.437
700.366	399.202
700.494	396.983
700.622	398.941
700.750	396.319
700.878	393.655
701.006	388.513
701.135	394.008
701.263	388.126
701.391	386.714
701.519	385.076
701.647	387.462
701.775	390.176
701.903	382.210
702.031	383.983
702.160	380.168
702.288	380.168
702.416	377.966
702.544	375.714
702.672	381.546
702.800	372.824
702.928	375.882
703.056	373.790
703.185	370.597
703.313	368.807
703.441	372.227
703.569	370.286
703.697	368.109
703.825	361.504
703.953	364.672
704.081	361.034
704.210	362.076
704.338	357.521
704.466	351.235
704.594	356.857
704.722	355.563
704.850	354.790
704.978	356.454
705.106	352.092
705.235	347.471
705.363	350.176
705.491	345.933
705.619	340.445
705.747	344.160
705.875	346.824
706.003	344.118
706.131	343.992
706.260	338.681
706.388	339.664
706.516	340.101
706.644	339.975
706.772	332.017
706.900	332.605
707.028	329.908
707.156	336.361
707.285	330.454
707.413	327.134
707.541	322.908
707.669	323.092
707.797	325.563
707.925	319.941
708.053	320.924
708.181	322.261
708.310	322.084
708.438	319.513
708.566	319.681
708.694	313.874
708.822	315.218
708.950	315.681
709.078	309.748
709.206	309.773
709.335	310.076
709.463	305.521
709.591	309.185
709.719	306.966
709.847	305.765
709.975	303.874
710.103	302.714
710.231	303.975
710.360	301.529
710.488	296.739
710.616	296.622
710.744	297.403
710.872	296.471
711.000	296.109
711.128	289.395
711.256	292.353
711.385	293.328
711.513	289.193
711.641	289.807
711.769	285.975
711.897	290.496
712.025	284.319
712.153	283.782
712.281	286.244
712.410	284.176
712.538	285.059
712.666	276.622
712.794	282.580
712.922	280.538
713.050	280.723
713.178	275.429
713.306	280.286
713.435	278.697
713.563	277.555
713.691	274.950
713.819	272.000
713.947	271.513
714.075	271.504
714.203	268.370
714.331	268.319
714.460	268.008
714.588	267.294
714.716	264.689
714.844	261.647
714.972	261.227
715.100	264.252
715.228	264.655
715.356	263.571
715.485	262.689
715.613	258.176
715.741	261.454
715.869	259.462
715.997	260.546
716.125	258.445
716.253	256.782
716.381	258.328
716.510	257.134
716.638	259.387
716.766	253.882
716.894	253.319
717.022	252.739
717.150	251.395
717.278	254.084
717.406	252.546
717.535	251.798
717.663	250.899
717.791	249.017
717.919	248.050
718.047	247.487
718.175	247.109
718.303	250.403
718.431	246.118
718.560	244.118
718.688	242.622
718.816	240.748
718.944	241.773
719.072	242.202
719.200	241.849
719.328	238.832
719.456	242.101
719.585	241.202
719.713	239.092
719.841	238.597
719.969	233.008
720.097	235.496
720.225	236.008
720.353	234.168
720.481	232.555
720.610	234.084
720.738	234.933
720.866	232.664
720.994	233.109
721.122	231.723
721.250	228.269
721.378	230.387
721.506	228.681
721.635	228.008
721.763	227.899
721.891	229.916
722.019	225.496
722.147	225.118
722.275	224.160
722.403	227.697
722.531	224.555
722.660	224.950
722.788	222.143
722.916	219.849
723.044	219.134
723.172	218.891
723.300	221.277
723.428	219.588
723.556	220.395
723.685	218.118
723.813	216.992
723.941	217.277
724.069	217.042
724.197	217.109
724.325	213.185
724.453	212.210
724.581	215.101
724.710	210.580
724.838	212.739
724.966	210.992
725.094	209.328
725.222	210.101
725.350	209.798
725.478	210.832
725.606	208.924
725.735	205.857
725.863	205.193
725.991	207.277
726.119	205.084
726.247	204.899
726.375	203.050
726.503	203.437
726.631	202.454
726.760	202.782
726.888	202.118
727.016	200.580
727.144	200.252
727.272	198.319
727.400	199.639
727.528	198.160
727.656	198.588
727.785	195.664
727.913	196.714
728.041	194.143
728.169	200.975
728.297	194.739
728.425	194.630
728.553	194.387
728.681	192.151
728.810	191.353
728.938	191.655
729.066	191.378
729.194	192.513
729.322	190.655
729.450	188.000
729.578	190.378
729.706	187.303
729.835	191.059
729.963	190.109
730.091	187.286
730.219	184.655
730.347	187.118
730.475	186.773
730.603	185.597
730.731	185.815
730.860	182.807
730.988	184.891
731.116	184.840
731.244	182.790
731.372	182.689
731.500	181.403
731.628	182.160
731.756	181.908
731.885	180.681
732.013	179.412
732.141	179.244
732.269	177.731
732.397	180.076
732.525	176.908
732.653	178.891
732.781	178.008
732.910	178.664
733.038	175.252
733.166	175.782
733.294	174.941
733.422	176.471
733.550	174.824
733.678	173.101
733.806	177.101
733.935	174.361
734.063	172.723
734.191	174.235
734.319	173.067
734.447	171.807
734.575	172.412
734.703	172.008
734.831	168.244
734.960	170.387
735.088	169.941
735.216	170.983
735.344	170.571
735.472	166.487
735.600	166.992
735.728	167.193
735.856	168.496
735.985	166.597
736.113	168.697
736.241	167.933
736.369	166.966
736.497	165.395
736.625	164.950
736.753	165.739
736.881	165.378
737.010	162.378
737.138	162.832
737.266	164.118
737.394	164.815
737.522	160.975
737.650	160.966
737.778	163.000
737.906	162.563
738.035	160.412
738.163	162.025
738.291	162.261
738.419	158.345
738.547	160.765
738.675	159.160
738.803	157.748
738.931	158.647
739.060	160.076
739.188	159.471
739.316	159.899
739.444	159.387
739.572	156.244
739.700	158.193
739.828	157.504
739.956	155.916
740.085	160.092
740.213	156.059
740.341	156.185
740.469	156.613
740.597	154.664
740.725	156.756
740.853	155.420
740.981	154.050
741.110	155.269
741.238	156.361
741.366	156.025
741.494	152.975
741.622	152.202
741.750	154.513
741.878	154.109
742.006	153.261
742.135	150.832
742.263	153.983
742.391	149.176
742.519	152.966
742.647	153.109
742.775	152.966
742.903	149.840
743.031	149.840
743.160	151.303
743.288	150.672
743.416	150.210
743.544	151.546
743.672	148.630
743.800	149.202
743.928	149.370
744.056	148.731
744.185	146.899
744.313	149.899
744.441	147.504
744.569	147.118
744.697	147.059
744.825	149.387
744.953	146.479
745.081	147.235
745.210	148.840
745.338	147.160
745.466	146.176
745.594	146.513
745.722	146.580
745.850	146.605
745.978	144.882
746.106	146.639
746.235	146.101
746.363	143.773
746.491	144.017
746.619	144.429
746.747	145.697
746.875	143.605
747.003	144.084
747.131	142.513
747.260	143.496
747.388	144.908
747.516	144.345
747.644	141.134
747.772	143.378
747.900	142.193
748.028	141.244
748.156	140.529
748.285	141.000
748.413	142.176
748.541	142.210
748.669	140.538
748.797	139.916
748.925	137.202
749.053	137.672
749.181	137.748
749.310	140.050
749.438	138.370
749.566	139.311
749.694	139.748
749.822	139.454
749.950	137.555
750.078	139.924
750.206	138.353
750.335	137.328
750.463	138.513
750.591	138.983
750.719	137.387
750.847	133.807
750.975	135.992
751.103	135.378
751.231	135.101
751.360	136.017
751.488	135.832
751.616	135.042
751.744	136.647
751.872	134.866
752.000	136.538
752.128	133.445
752.256	134.504
752.385	133.992
752.513	134.160
752.641	133.227
752.769	132.319
752.897	133.891
753.025	133.017
753.153	133.706
753.281	132.950
753.410	132.151
753.538	132.294
753.666	130.975
753.794	131.958
753.922	132.739
754.050	131.395
754.178	130.706
754.306	131.504
754.435	130.815
754.563	132.345
754.691	130.210
754.819	131.370
754.947	130.941
755.075	130.908
755.203	131.790
755.331	131.681
755.460	129.202
755.588	129.437
755.716	129.454
755.844	128.168
755.972	130.084
756.100	128.697
756.228	126.933
756.356	128.160
756.485	128.950
756.613	128.176
756.741	129.294
756.869	127.076
756.997	128.134
757.125	127.958
757.253	126.773
757.381	128.134
757.510	128.067
757.638	127.840
757.766	126.891
757.894	126.092
758.022	126.924
758.150	127.042
758.278	127.151
758.406	127.731
758.535	126.697
758.663	127.210
758.791	126.193
758.919	126.941
759.047	125.218
759.175	127.000
759.303	127.303
759.431	123.034
759.560	123.538
759.688	126.908
759.816	125.118
759.944	126.092
760.072	124.790
760.200	125.185
760.328	126.008
760.456	125.756
760.585	125.622
760.713	124.134
760.841	125.378
760.969	124.664
761.097	123.319
761.225	125.000
761.353	124.067
761.481	124.109
761.610	122.563
761.738	123.597
761.866	124.017
761.994	122.395
762.122	122.218
762.250	122.849
762.378	123.311
762.506	122.630
762.635	124.050
762.763	123.134
762.891	124.891
763.019	123.244
763.147	122.202
763.275	122.059
763.403	121.975
763.531	121.605
763.660	121.950
763.788	121.689
763.916	121.975
764.044	121.017
764.172	123.630
764.300	122.017
764.428	121.563
764.556	121.437
764.685	121.655
764.813	120.437
764.941	121.555
765.069	122.916
765.197	120.689
765.325	120.050
765.453	120.748
765.581	120.059
765.710	120.160
765.838	118.370
765.966	118.882
766.094	120.109
766.222	121.328
766.350	118.151
766.478	119.395
766.606	118.924
766.735	119.487
766.863	119.412
766.991	119.252
767.119	119.622
767.247	119.319
767.375	118.622
767.503	119.092
767.631	120.513
767.760	118.807
767.888	118.496
768.016	118.891
768.144	117.899
768.272	117.050
768.400	119.387
768.528	118.966
768.656	118.479
768.785	119.202
768.913	117.487
769.041	118.756
769.169	118.034
769.297	116.924
769.425	116.748
769.553	118.403
769.681	117.462
769.810	118.336
769.938	115.983
770.066	117.151
770.194	116.605
770.322	117.025
770.450	117.269
770.578	118.496
770.706	117.546
770.835	117.176
770.963	117.462
771.091	116.832
771.219	116.672
771.347	117.160
771.475	117.487
771.603	117.134
771.731	117.050
771.860	116.798
771.988	117.210
772.116	116.252
772.244	116.798
772.372	115.336
772.500	116.891
772.628	117.202
772.756	115.538
772.885	116.983
773.013	116.008
773.141	114.899
773.269	115.370
773.397	115.487
773.525	114.286
773.653	116.387
773.781	115.462
773.910	113.521
774.038	114.924
774.166	116.622
774.294	115.185
774.422	113.555
774.550	115.050
774.678	116.269
774.806	114.185
774.935	115.706
775.063	114.345
775.191	116.294
775.319	114.739
775.447	115.244
775.575	114.882
775.703	116.252
775.831	113.756
775.960	112.748
776.088	113.832
776.216	114.529
776.344	113.126
776.472	114.538
776.600	114.664
776.728	112.782
776.856	113.765
776.985	113.487
777.113	113.563
777.241	113.202
777.369	113.378
777.497	112.311
777.625	113.958
777.753	113.529
777.881	112.748
778.010	112.664
778.138	113.252
778.266	112.739
778.394	113.681
778.522	113.924
778.650	112.773
778.778	112.782
778.906	113.639
779.035	114.034
779.163	112.151
779.291	113.109
779.419	112.639
779.547	111.899
779.675	112.681
779.803	112.908
779.931	112.328
780.060	112.445
780.188	112.067
780.316	112.000
780.444	113.387
780.572	111.311
780.700	113.185
780.828	111.983
780.956	112.017
781.085	112.319
781.213	112.092
781.341	111.790
781.469	111.286
781.597	111.697
781.725	111.588
781.853	111.580
781.981	111.664
782.110	114.076
782.238	111.630
782.366	111.134
782.494	110.840
782.622	111.647
782.750	112.084
782.878	111.143
783.006	111.622
783.135	111.176
783.263	110.538
783.391	111.555
783.519	110.269
783.647	109.992
783.775	110.445
783.903	110.563
784.031	110.597
784.160	110.563
784.288	111.387
784.416	110.681
784.544	109.756
784.672	110.118
784.800	109.748
784.928	110.000
785.056	108.933
785.185	110.328
785.313	109.462
785.441	109.966
785.569	109.664
785.697	111.639
785.825	109.202
785.953	109.992
786.081	109.613
786.210	108.866
786.338	109.294
786.466	108.647
786.594	109.261
786.722	109.487
786.850	110.395
786.978	108.857
787.106	109.025
787.235	110.042
787.363	110.143
787.491	110.361
787.619	110.580
787.747	109.563
787.875	109.218
788.003	108.882
788.131	108.412
788.260	109.294
788.388	110.227
788.516	108.840
788.644	109.319
788.772	108.689
788.900	110.151
789.028	108.403
789.156	109.765
789.285	108.739
789.413	109.639
789.541	109.118
789.669	107.983
789.797	108.487
789.925	108.496
790.053	110.580
790.181	109.244
790.310	108.681
790.438	108.798
790.566	108.975
790.694	109.168
790.822	108.597
790.950	108.857
791.078	108.950
791.206	107.689
791.335	107.807
791.463	108.849
791.591	108.504
791.719	109.034
791.847	108.336
791.975	108.328
792.103	107.857
792.231	108.916
792.360	108.437
792.488	107.538
792.616	108.445
792.744	108.588
792.872	107.832
793.000	108.597
793.128	107.874
793.256	108.193
793.385	108.639
793.513	108.571
793.641	107.345
793.769	107.487
793.897	108.580
794.025	108.437
794.153	107.571
794.281	107.731
794.410	107.210
794.538	107.807
794.666	108.437
794.794	107.025
794.922	108.286
795.050	107.538
795.178	107.563
795.306	105.387
795.435	106.756
795.563	108.143
795.691	107.227
795.819	106.983
795.947	107.529
796.075	108.218
796.203	108.034
796.331	106.874
796.460	106.765
796.588	107.765
796.716	108.261
796.844	107.857
796.972	108.723
797.100	107.092
797.228	108.143
797.356	108.218
797.485	106.908
797.613	106.689
797.741	107.336
797.869	107.739
797.997	106.916
798.125	107.739
798.253	106.891
798.381	107.134
798.510	107.336
798.638	106.277
798.766	107.101
798.894	106.261
799.022	106.857
799.150	106.218
799.278	106.345
799.406	106.723
799.535	106.899
799.663	106.866
799.791	105.739
799.919	106.454
800.047	106.975
800.175	107.168
800.303	105.756
800.431	106.681
800.560	105.765
800.688	107.118
800.816	105.908
800.944	106.697
801.072	107.706
801.200	106.916
801.328	106.193
801.456	107.807
801.585	106.319
801.713	106.218
801.841	107.008
801.969	106.126
802.097	106.269
802.225	106.328
802.353	106.277
802.481	106.345
802.610	106.731
802.738	106.790
802.866	107.218
802.994	106.370
803.122	106.597
803.250	106.462
803.378	106.462
803.506	106.353
803.635	106.681
803.763	106.521
803.891	106.773
804.019	106.521
804.147	106.958
804.275	106.437
804.403	106.504
804.531	105.092
804.660	105.546
804.788	105.815
804.916	105.462
805.044	105.504
805.172	105.782
805.300	105.387
805.428	106.529
805.556	105.697
805.685	106.050
805.813	106.555
805.941	105.345
806.069	106.639
806.197	106.597
806.325	105.294
806.453	106.319
806.581	105.529
806.710	104.882
806.838	104.261
806.966	106.588
807.094	105.311
807.222	106.521
807.350	105.773
807.478	105.992
807.606	105.496
807.735	105.815
807.863	106.261
807.991	105.311
808.119	105.933
808.247	105.731
808.375	105.538
808.503	106.034
808.631	106.126
808.760	105.555
808.888	104.622
809.016	106.353
809.144	106.286
809.272	106.790
809.400	106.084
809.528	105.538
809.656	104.941
809.785	104.882
809.913	105.748
810.041	105.714
810.169	105.050
810.297	105.958
810.425	106.126
810.553	105.034
810.681	106.218
810.810	106.294
810.938	106.126
811.066	103.849
811.194	105.017
811.322	105.471
811.450	105.387
811.578	105.571
811.706	105.908
811.835	105.109
811.963	105.034
812.091	106.723
812.219	105.462
812.347	104.891
812.475	106.059
812.603	105.739
812.731	104.176
812.860	106.849
812.988	106.370
813.116	104.992
813.244	106.277
813.372	106.176
813.500	105.630
813.628	105.807
813.756	103.992
813.885	105.479
814.013	105.403
814.141	106.000
814.269	104.756
814.397	106.050
814.525	104.563
814.653	105.529
814.781	104.613
814.910	105.000
815.038	105.588
815.166	105.824
815.294	104.076
815.422	106.076
815.550	104.916
815.678	104.370
815.806	105.210
815.935	104.605
816.063	104.941
816.191	104.025
816.319	104.975
816.447	105.580
816.575	104.655
816.703	105.513
816.831	106.008
816.960	106.092
817.088	105.143
817.216	104.630
817.344	105.445
817.472	106.185
817.600	104.849
817.728	104.546
817.856	105.286
817.985	104.101
818.113	104.748
818.241	105.412
818.369	104.782
818.497	105.462
818.625	104.756
818.753	105.109
818.881	105.849
819.010	104.807
819.138	104.529
819.266	104.992
819.394	105.227
819.522	104.017
819.650	105.807
819.778	104.622
819.906	105.588
820.035	104.513
820.163	104.479
820.291	104.319
820.419	104.202
820.547	105.008
820.675	103.336
820.803	104.672
820.931	105.387
821.060	103.227
821.188	104.185
821.316	104.143
821.444	104.639
821.572	104.622
821.700	105.370
821.828	104.731
821.956	105.084
822.085	104.143
822.213	105.588
822.341	104.429
822.469	103.941
822.597	103.622
822.725	104.252
822.853	104.008
822.981	103.916
823.110	105.294
823.238	102.899
823.366	105.109
823.494	103.101
823.622	104.521
823.750	104.235
823.878	102.378
824.006	105.345
824.135	104.798
824.263	105.361
824.391	103.429
824.519	104.773
824.647	104.832
824.775	105.193
824.903	104.303
825.031	105.387
825.160	105.286
825.288	104.134
825.416	104.672
825.544	104.857
825.672	105.000
825.800	104.555
825.928	104.597
826.056	104.723
826.185	104.613
826.313	104.748
826.441	104.563
826.569	103.706
826.697	104.622
826.825	103.950
826.953	105.504
827.081	103.403
827.210	104.193
827.338	103.504
827.466	103.227
827.594	103.790
827.722	104.479
827.850	103.647
827.978	102.950
828.106	103.714
828.235	105.403
828.363	103.958
828.491	104.328
828.619	103.546
828.747	104.143
828.875	104.193
829.003	104.563
829.131	104.571
829.260	105.227
829.388	104.429
829.516	104.908
829.644	103.891
829.772	104.336
829.900	103.605
830.028	104.445
830.156	104.143
830.285	104.202
830.413	104.815
830.541	104.454
830.669	103.773
830.797	103.294
830.925	103.286
831.053	103.269
831.181	104.185
831.310	104.513
831.438	103.983
831.566	103.933
831.694	103.983
831.822	102.882
831.950	103.244
832.078	104.420
832.206	103.924
832.335	103.168
832.463	104.319
832.591	104.496
832.719	103.840
832.847	103.706
832.975	103.193
833.103	104.252
833.231	103.958
833.360	104.387
833.488	103.832
833.616	103.202
833.744	103.084
833.872	104.403
834.000	104.975
834.128	104.319
834.256	103.555
834.385	104.353
834.513	105.017
834.641	103.378
834.769	103.529
834.897	104.504
835.025	102.697
835.153	102.294
835.281	103.143
835.410	103.824
835.538	104.571
835.666	104.000
835.794	103.782
835.922	104.076
836.050	103.664
836.178	104.101
836.306	103.756
836.435	103.756
836.563	103.361
836.691	103.529
836.819	104.807
836.947	103.387
837.075	103.076
837.203	102.504
837.331	104.529
837.460	104.244
837.588	103.370
837.716	104.118
837.844	104.000
837.972	103.849
838.100	103.689
838.228	103.210
838.356	102.782
838.485	102.513
838.613	104.059
838.741	104.269
838.869	103.597
838.997	103.933
839.125	102.210
839.253	103.403
839.381	104.311
839.510	102.857
839.638	103.588
839.766	102.790
839.894	103.748
840.022	103.445
840.150	104.034
840.278	103.353
840.406	104.101
840.535	104.353
840.663	102.714
840.791	102.756
840.919	102.756
841.047	102.647
841.175	103.454
841.303	103.563
841.431	103.479
841.560	103.555
841.688	103.429
841.816	103.672
841.944	102.950
842.072	103.689
842.200	103.664
842.328	104.378
842.456	103.328
842.585	104.655
842.713	103.630
842.841	103.588
842.969	103.714
843.097	103.361
843.225	103.437
843.353	103.706
843.481	103.050
843.610	103.731
843.738	102.966
843.866	103.025
