70-80-unpol_at_679.99nm_cut_at_1283.50Y_01.dat
24.01.2024
11:27:00
cut middle at Y: 1283.50
top cursor: 1343 down cursor: 1224 mean of: 119 lines , 2560 datapoints
wavelength(nm)	intensity[arb. units]
515.994	1168.647
516.122	1101.849
516.250	1072.050
516.378	1067.975
516.506	1073.210
516.635	1066.563
516.763	1080.017
516.891	1087.546
517.019	1093.723
517.147	1091.958
517.275	1084.496
517.403	1100.899
517.531	1086.076
517.660	1094.160
517.788	1096.017
517.916	1104.076
518.044	1086.739
518.172	1103.277
518.300	1102.597
518.428	1099.664
518.556	1113.109
518.685	1101.924
518.813	1109.059
518.941	1113.714
519.069	1108.857
519.197	1106.874
519.325	1120.706
519.453	1113.538
519.581	1136.941
519.710	1112.218
519.838	1125.345
519.966	1123.403
520.094	1122.294
520.222	1129.866
520.350	1147.126
520.478	1145.471
520.606	1152.286
520.735	1148.370
520.863	1152.353
520.991	1159.697
521.119	1159.513
521.247	1167.866
521.375	1176.361
521.503	1173.017
521.631	1180.538
521.760	1182.084
521.888	1182.950
522.016	1192.563
522.144	1180.731
522.272	1197.479
522.400	1198.580
522.528	1217.992
522.656	1203.412
522.785	1206.244
522.913	1214.681
523.041	1206.504
523.169	1207.916
523.297	1217.874
523.425	1213.689
523.553	1217.580
523.681	1213.815
523.810	1224.462
523.938	1237.773
524.066	1222.437
524.194	1222.849
524.322	1230.714
524.450	1225.580
524.578	1217.269
524.706	1226.050
524.835	1224.874
524.963	1238.571
525.091	1223.807
525.219	1230.134
525.347	1227.479
525.475	1237.395
525.603	1237.597
525.731	1237.210
525.860	1237.731
525.988	1219.345
526.116	1225.773
526.244	1230.244
526.372	1222.723
526.500	1233.445
526.628	1258.193
526.756	1233.622
526.885	1247.311
527.013	1231.950
527.141	1240.277
527.269	1242.555
527.397	1254.008
527.525	1252.555
527.653	1238.076
527.781	1239.059
527.910	1261.437
528.038	1266.311
528.166	1258.126
528.294	1257.328
528.422	1257.647
528.550	1272.387
528.678	1262.630
528.806	1277.160
528.935	1288.504
529.063	1277.588
529.191	1285.151
529.319	1286.798
529.447	1284.546
529.575	1289.101
529.703	1286.034
529.831	1297.941
529.960	1296.824
530.088	1297.345
530.216	1296.924
530.344	1301.639
530.472	1302.252
530.600	1307.227
530.728	1308.571
530.856	1320.034
530.985	1315.655
531.113	1315.008
531.241	1322.639
531.369	1329.193
531.497	1317.756
531.625	1322.487
531.753	1317.445
531.881	1327.269
532.010	1328.193
532.138	1317.815
532.266	1323.588
532.394	1322.067
532.522	1304.555
532.650	1328.706
532.778	1328.664
532.906	1325.857
533.035	1328.227
533.163	1316.042
533.291	1316.899
533.419	1308.252
533.547	1311.370
533.675	1321.882
533.803	1311.916
533.931	1323.017
534.060	1322.059
534.188	1327.143
534.316	1325.966
534.444	1317.824
534.572	1323.748
534.700	1332.378
534.828	1325.387
534.956	1333.353
535.085	1335.580
535.213	1340.782
535.341	1339.748
535.469	1340.487
535.597	1340.664
535.725	1357.706
535.853	1350.849
535.981	1347.294
536.110	1361.160
536.238	1370.227
536.366	1373.538
536.494	1364.412
536.622	1374.613
536.750	1374.429
536.878	1382.076
537.006	1395.076
537.135	1393.210
537.263	1394.235
537.391	1403.924
537.519	1386.487
537.647	1406.387
537.775	1404.866
537.903	1412.933
538.031	1412.210
538.160	1414.319
538.288	1422.731
538.416	1424.118
538.544	1418.697
538.672	1439.218
538.800	1437.588
538.928	1439.403
539.056	1446.840
539.185	1436.874
539.313	1430.126
539.441	1444.025
539.569	1446.790
539.697	1437.849
539.825	1457.899
539.953	1451.042
540.081	1440.101
540.210	1459.084
540.338	1450.395
540.466	1467.412
540.594	1460.664
540.722	1450.748
540.850	1454.353
540.978	1459.176
541.106	1464.454
541.235	1474.277
541.363	1465.311
541.491	1464.252
541.619	1464.849
541.747	1467.790
541.875	1475.521
542.003	1470.832
542.131	1477.218
542.260	1479.294
542.388	1475.403
542.516	1474.513
542.644	1477.454
542.772	1477.807
542.900	1477.924
543.028	1490.866
543.156	1491.437
543.285	1497.807
543.413	1489.235
543.541	1494.294
543.669	1482.008
543.797	1497.429
543.925	1492.244
544.053	1494.681
544.181	1508.832
544.310	1497.916
544.438	1495.840
544.566	1521.210
544.694	1514.874
544.822	1512.739
544.950	1518.655
545.078	1509.235
545.206	1505.655
545.335	1524.185
545.463	1505.471
545.591	1511.328
545.719	1523.613
545.847	1528.731
545.975	1516.983
546.103	1517.328
546.231	1533.008
546.360	1521.891
546.488	1519.025
546.616	1527.597
546.744	1540.521
546.872	1525.277
547.000	1534.950
547.128	1534.924
547.256	1533.697
547.385	1519.723
547.513	1520.286
547.641	1543.731
547.769	1550.790
547.897	1548.303
548.025	1547.420
548.153	1546.807
548.281	1534.756
548.410	1553.244
548.538	1548.647
548.666	1553.639
548.794	1540.353
548.922	1550.739
549.050	1561.042
549.178	1563.126
549.306	1557.445
549.435	1574.143
549.563	1564.454
549.691	1557.412
549.819	1569.908
549.947	1574.723
550.075	1573.748
550.203	1566.303
550.331	1572.958
550.460	1570.496
550.588	1572.655
550.716	1580.429
550.844	1573.185
550.972	1561.454
551.100	1578.412
551.228	1586.176
551.356	1576.118
551.485	1568.252
551.613	1571.824
551.741	1573.739
551.869	1564.992
551.997	1558.185
552.125	1561.555
552.253	1549.521
552.381	1555.782
552.510	1559.328
552.638	1547.479
552.766	1558.252
552.894	1549.538
553.022	1545.605
553.150	1548.773
553.278	1549.891
553.406	1540.924
553.535	1543.773
553.663	1535.966
553.791	1538.134
553.919	1551.782
554.047	1545.613
554.175	1535.891
554.303	1539.403
554.431	1542.882
554.560	1551.328
554.688	1556.050
554.816	1546.487
554.944	1547.765
555.072	1551.479
555.200	1561.227
555.328	1550.849
555.456	1576.647
555.585	1550.739
555.713	1558.655
555.841	1568.538
555.969	1557.294
556.097	1571.504
556.225	1569.479
556.353	1576.252
556.481	1558.571
556.610	1574.050
556.738	1590.739
556.866	1592.706
556.994	1586.790
557.122	1584.319
557.250	1588.714
557.378	1591.630
557.506	1603.513
557.635	1604.899
557.763	1604.471
557.891	1623.597
558.019	1605.899
558.147	1621.765
558.275	1619.571
558.403	1619.361
558.531	1616.134
558.660	1624.361
558.788	1622.815
558.916	1636.412
559.044	1623.555
559.172	1622.244
559.300	1644.546
559.428	1635.395
559.556	1636.353
559.685	1644.840
559.813	1635.983
559.941	1644.084
560.069	1646.513
560.197	1645.731
560.325	1651.697
560.453	1641.731
560.581	1642.134
560.710	1651.092
560.838	1646.109
560.966	1648.941
561.094	1669.471
561.222	1643.059
561.350	1653.042
561.478	1645.118
561.606	1662.319
561.735	1649.092
561.863	1656.160
561.991	1645.286
562.119	1642.857
562.247	1635.454
562.375	1653.538
562.503	1644.723
562.631	1638.487
562.760	1650.555
562.888	1652.471
563.016	1643.908
563.144	1650.605
563.272	1634.076
563.400	1630.042
563.528	1637.958
563.656	1654.479
563.785	1652.042
563.913	1659.042
564.041	1640.429
564.169	1656.235
564.297	1650.773
564.425	1649.042
564.553	1673.807
564.681	1659.429
564.810	1645.647
564.938	1660.521
565.066	1657.546
565.194	1672.739
565.322	1674.681
565.450	1670.739
565.578	1685.403
565.706	1666.924
565.835	1683.765
565.963	1683.471
566.091	1669.176
566.219	1690.555
566.347	1695.303
566.475	1687.168
566.603	1705.992
566.731	1704.000
566.860	1702.546
566.988	1710.210
567.116	1723.815
567.244	1712.857
567.372	1723.546
567.500	1730.126
567.628	1737.235
567.756	1747.857
567.885	1742.807
568.013	1758.723
568.141	1748.328
568.269	1746.034
568.397	1750.319
568.525	1758.546
568.653	1780.891
568.781	1767.403
568.910	1796.748
569.038	1781.555
569.166	1775.059
569.294	1783.319
569.422	1798.202
569.550	1781.395
569.678	1806.353
569.806	1812.832
569.935	1812.445
570.063	1819.462
570.191	1817.824
570.319	1833.765
570.447	1817.840
570.575	1825.773
570.703	1839.798
570.831	1840.782
570.960	1846.176
571.088	1849.227
571.216	1848.899
571.344	1847.429
571.472	1858.445
571.600	1878.992
571.728	1864.571
571.856	1865.210
571.985	1879.504
572.113	1877.311
572.241	1882.319
572.369	1886.454
572.497	1882.798
572.625	1889.454
572.753	1892.866
572.881	1894.361
573.010	1906.664
573.138	1929.403
573.266	1915.134
573.394	1906.059
573.522	1917.513
573.650	1922.681
573.778	1911.840
573.906	1910.395
574.035	1920.908
574.163	1936.773
574.291	1928.286
574.419	1943.193
574.547	1949.277
574.675	1959.479
574.803	1949.319
574.931	1947.412
575.060	1957.454
575.188	1945.639
575.316	1947.454
575.444	1957.050
575.572	1955.647
575.700	1955.790
575.828	1978.992
575.956	1984.017
576.085	1951.378
576.213	1980.378
576.341	1963.084
576.469	1977.109
576.597	1966.958
576.725	1961.210
576.853	1959.118
576.981	1978.597
577.110	1979.403
577.238	1987.723
577.366	1977.613
577.494	1972.487
577.622	1969.050
577.750	1988.815
577.878	1989.454
578.006	2008.370
578.135	1994.697
578.263	1994.739
578.391	2017.723
578.519	1994.101
578.647	2008.034
578.775	2007.244
578.903	1988.891
579.031	2013.992
579.160	2011.891
579.288	1995.193
579.416	2002.000
579.544	2018.059
579.672	2015.361
579.800	2016.840
579.928	2006.218
580.056	2021.866
580.185	2020.109
580.313	2027.521
580.441	2044.227
580.569	2028.176
580.697	2026.622
580.825	2049.336
580.953	2059.706
581.081	2061.546
581.210	2072.059
581.338	2074.269
581.466	2073.983
581.594	2080.681
581.722	2081.588
581.850	2072.748
581.978	2089.857
582.106	2093.748
582.235	2107.941
582.363	2090.151
582.491	2114.832
582.619	2114.025
582.747	2123.261
582.875	2135.958
583.003	2148.370
583.131	2151.353
583.260	2154.664
583.388	2169.731
583.516	2175.765
583.644	2166.403
583.772	2173.655
583.900	2197.387
584.028	2214.059
584.156	2204.479
584.285	2229.782
584.413	2208.546
584.541	2241.597
584.669	2232.933
584.797	2241.218
584.925	2250.597
585.053	2262.471
585.181	2277.126
585.310	2274.824
585.438	2259.412
585.566	2277.706
585.694	2291.613
585.822	2323.983
585.950	2299.782
586.078	2325.034
586.206	2328.412
586.335	2336.025
586.463	2363.975
586.591	2354.580
586.719	2364.277
586.847	2373.160
586.975	2387.815
587.103	2381.958
587.231	2371.639
587.360	2395.739
587.488	2391.983
587.616	2394.588
587.744	2423.067
587.872	2397.706
588.000	2404.471
588.128	2418.748
588.256	2423.311
588.385	2415.546
588.513	2427.681
588.641	2423.336
588.769	2465.345
588.897	2439.706
589.025	2448.941
589.153	2456.487
589.281	2444.462
589.410	2454.437
589.538	2461.605
589.666	2480.479
589.794	2480.546
589.922	2482.294
590.050	2495.387
590.178	2467.639
590.306	2479.370
590.435	2480.933
590.563	2487.101
590.691	2500.387
590.819	2495.000
590.947	2508.319
591.075	2502.059
591.203	2520.151
591.331	2522.412
591.460	2529.983
591.588	2518.067
591.716	2542.311
591.844	2530.798
591.972	2574.143
592.100	2542.513
592.228	2547.790
592.356	2540.076
592.485	2545.840
592.613	2549.882
592.741	2582.126
592.869	2560.941
592.997	2585.059
593.125	2594.857
593.253	2617.916
593.381	2618.824
593.510	2617.748
593.638	2605.639
593.766	2607.866
593.894	2610.630
594.022	2638.387
594.150	2636.983
594.278	2662.345
594.406	2644.168
594.535	2645.185
594.663	2651.773
594.791	2670.008
594.919	2696.992
595.047	2700.008
595.175	2712.571
595.303	2706.328
595.431	2700.227
595.560	2742.059
595.688	2740.790
595.816	2772.714
595.944	2720.303
596.072	2730.479
596.200	2745.580
596.328	2753.034
596.456	2727.059
596.585	2754.244
596.713	2751.605
596.841	2786.857
596.969	2782.924
597.097	2810.992
597.225	2815.319
597.353	2835.000
597.481	2837.042
597.610	2819.445
597.738	2872.857
597.866	2855.773
597.994	2853.017
598.122	2883.571
598.250	2896.672
598.378	2867.933
598.506	2875.916
598.635	2898.168
598.763	2885.118
598.891	2920.479
599.019	2922.496
599.147	2943.336
599.275	2907.319
599.403	2950.084
599.531	2951.370
599.660	2954.782
599.788	2945.504
599.916	2968.034
600.044	3026.857
600.172	2941.513
600.300	2986.966
600.428	2990.261
600.556	3010.782
600.685	3078.378
600.813	3030.118
600.941	3047.824
601.069	3032.269
601.197	3049.798
601.325	3060.857
601.453	3030.529
601.581	3053.437
601.710	3090.210
601.838	3090.765
601.966	3170.361
602.094	3165.471
602.222	3138.874
602.350	3121.067
602.478	3132.916
602.606	3179.277
602.735	3139.168
602.863	3184.353
602.991	3201.059
603.119	3178.739
603.247	3174.000
603.375	3199.849
603.503	3230.387
603.631	3235.790
603.760	3249.042
603.888	3271.866
604.016	3277.597
604.144	3243.042
604.272	3294.101
604.400	3311.546
604.528	3302.866
604.656	3327.513
604.785	3331.471
604.913	3370.647
605.041	3310.000
605.169	3359.000
605.297	3342.361
605.425	3337.832
605.553	3394.882
605.681	3358.941
605.810	3399.639
605.938	3414.958
606.066	3393.975
606.194	3417.723
606.322	3415.345
606.450	3433.966
606.578	3418.639
606.706	3457.933
606.835	3447.244
606.963	3506.958
607.091	3518.109
607.219	3457.782
607.347	3468.000
607.475	3490.336
607.603	3480.706
607.731	3463.042
607.860	3497.748
607.988	3501.269
608.116	3555.462
608.244	3496.849
608.372	3540.824
608.500	3516.151
608.628	3486.387
608.756	3527.672
608.885	3579.395
609.013	3526.361
609.141	3502.210
609.269	3503.756
609.397	3526.017
609.525	3546.143
609.653	3568.126
609.781	3529.563
609.910	3557.454
610.038	3640.807
610.166	3558.185
610.294	3566.807
610.422	3567.437
610.550	3556.765
610.678	3570.723
610.806	3572.840
610.935	3553.832
611.063	3599.092
611.191	3610.588
611.319	3612.050
611.447	3606.050
611.575	3590.538
611.703	3589.529
611.831	3611.336
611.960	3603.395
612.088	3610.941
612.216	3611.252
612.344	3617.588
612.472	3621.798
612.600	3638.798
612.728	3630.101
612.856	3588.345
612.985	3610.824
613.113	3653.840
613.241	3658.134
613.369	3641.513
613.497	3641.605
613.625	3672.798
613.753	3666.983
613.881	3688.345
614.010	3643.277
614.138	3705.126
614.266	3681.866
614.394	3714.017
614.522	3720.849
614.650	3687.395
614.778	3702.378
614.906	3697.437
615.035	3720.975
615.163	3691.311
615.291	3749.328
615.419	3709.840
615.547	3709.933
615.675	3748.739
615.803	3782.697
615.931	3754.437
616.060	3754.395
616.188	3784.613
616.316	3768.597
616.444	3760.185
616.572	3794.059
616.700	3812.429
616.828	3799.765
616.956	3831.739
617.085	3821.017
617.213	3811.655
617.341	3838.874
617.469	3906.798
617.597	3821.765
617.725	3834.151
617.853	3853.681
617.981	3857.235
618.110	3899.513
618.238	3918.504
618.366	3884.798
618.494	3877.807
618.622	3896.395
618.750	3968.218
618.878	3943.790
619.006	3935.571
619.135	3986.756
619.263	3950.571
619.391	3956.185
619.519	3981.655
619.647	4016.697
619.775	4011.361
619.903	4017.664
620.031	4007.958
620.160	3993.118
620.288	4042.050
620.416	4040.672
620.544	4038.748
620.672	4045.361
620.800	4079.504
620.928	4078.076
621.056	4124.059
621.185	4090.210
621.313	4084.303
621.441	4097.824
621.569	4095.613
621.697	4143.807
621.825	4145.210
621.953	4123.193
622.081	4166.361
622.210	4143.613
622.338	4179.437
622.466	4170.269
622.594	4201.630
622.722	4160.378
622.850	4209.193
622.978	4235.908
623.106	4215.227
623.235	4241.874
623.363	4222.639
623.491	4221.479
623.619	4255.143
623.747	4245.403
623.875	4295.034
624.003	4239.538
624.131	4274.924
624.260	4302.916
624.388	4253.782
624.516	4285.773
624.644	4264.176
624.772	4258.277
624.900	4251.134
625.028	4277.798
625.156	4282.580
625.285	4330.580
625.413	4322.151
625.541	4303.504
625.669	4309.966
625.797	4317.513
625.925	4304.311
626.053	4325.151
626.181	4289.319
626.310	4412.244
626.438	4305.983
626.566	4311.580
626.694	4331.235
626.822	4331.319
626.950	4343.134
627.078	4318.218
627.206	4337.227
627.335	4328.235
627.463	4317.034
627.591	4345.773
627.719	4401.160
627.847	4358.622
627.975	4341.126
628.103	4387.504
628.231	4353.050
628.360	4351.311
628.488	4355.252
628.616	4374.882
628.744	4353.244
628.872	4403.689
629.000	4388.874
629.128	4360.840
629.256	4354.639
629.385	4381.395
629.513	4352.899
629.641	4374.588
629.769	4415.697
629.897	4400.168
630.025	4361.765
630.153	4427.538
630.281	4398.227
630.410	4399.034
630.538	4401.714
630.666	4404.403
630.794	4392.933
630.922	4450.546
631.050	4380.294
631.178	4398.622
631.306	4383.832
631.435	4404.294
631.563	4419.790
631.691	4445.950
631.819	4481.319
631.947	4410.277
632.075	4385.773
632.203	4463.807
632.331	4397.160
632.460	4400.084
632.588	4419.403
632.716	4406.252
632.844	4454.546
632.972	4385.084
633.100	4373.244
633.228	4408.412
633.356	4399.487
633.485	4407.807
633.613	4405.664
633.741	4411.084
633.869	4415.479
633.997	4400.227
634.125	4437.630
634.253	4409.790
634.381	4401.538
634.510	4408.983
634.638	4425.412
634.766	4461.538
634.894	4407.655
635.022	4403.975
635.150	4396.387
635.278	4415.000
635.406	4385.950
635.535	4400.151
635.663	4413.143
635.791	4357.429
635.919	4389.538
636.047	4371.017
636.175	4396.613
636.303	4385.403
636.431	4405.168
636.560	4400.580
636.688	4378.639
636.816	4392.210
636.944	4373.882
637.072	4400.420
637.200	4385.277
637.328	4377.815
637.456	4361.378
637.585	4367.975
637.713	4377.504
637.841	4364.067
637.969	4398.244
638.097	4373.218
638.225	4366.311
638.353	4364.613
638.481	4377.378
638.610	4356.571
638.738	4372.933
638.866	4365.403
638.994	4375.731
639.122	4353.874
639.250	4339.723
639.378	4387.471
639.506	4363.462
639.635	4384.689
639.763	4336.227
639.891	4368.353
640.019	4393.445
640.147	4417.798
640.275	4359.975
640.403	4346.622
640.531	4417.546
640.660	4369.387
640.788	4437.857
640.916	4372.798
641.044	4371.412
641.172	4359.807
641.300	4379.286
641.428	4371.664
641.556	4384.025
641.685	4406.924
641.813	4382.950
641.941	4385.580
642.069	4408.580
642.197	4414.000
642.325	4404.538
642.453	4384.345
642.581	4479.580
642.710	4347.706
642.838	4395.714
642.966	4393.824
643.094	4393.882
643.222	4359.025
643.350	4389.185
643.478	4429.765
643.606	4390.462
643.735	4364.118
643.863	4392.311
643.991	4385.202
644.119	4391.773
644.247	4408.958
644.375	4373.908
644.503	4410.899
644.631	4424.723
644.760	4416.235
644.888	4401.328
645.016	4421.160
645.144	4395.017
645.272	4360.353
645.400	4422.403
645.528	4403.866
645.656	4380.765
645.785	4400.723
645.913	4446.076
646.041	4385.193
646.169	4443.857
646.297	4366.420
646.425	4400.714
646.553	4376.050
646.681	4359.933
646.810	4373.109
646.938	4341.496
647.066	4300.866
647.194	4410.311
647.322	4338.084
647.450	4341.866
647.578	4328.218
647.706	4307.109
647.835	4305.916
647.963	4346.588
648.091	4273.790
648.219	4340.387
648.347	4325.202
648.475	4301.008
648.603	4297.176
648.731	4261.739
648.860	4278.504
648.988	4235.387
649.116	4247.000
649.244	4214.739
649.372	4241.815
649.500	4235.723
649.628	4258.420
649.756	4222.059
649.885	4201.151
650.013	4196.908
650.141	4174.109
650.269	4143.874
650.397	4155.866
650.525	4126.908
650.653	4175.563
650.781	4131.168
650.910	4113.739
651.038	4056.529
651.166	4064.782
651.294	4069.672
651.422	4060.210
651.550	4001.555
651.678	4047.555
651.806	4027.924
651.935	4024.647
652.063	4023.605
652.191	4002.143
652.319	3981.353
652.447	3993.235
652.575	3952.605
652.703	3995.101
652.831	3975.773
652.960	3919.311
653.088	3947.412
653.216	3938.975
653.344	3926.546
653.472	3892.874
653.600	3896.252
653.728	3881.303
653.856	3894.874
653.985	3869.412
654.113	3862.370
654.241	3840.891
654.369	3846.689
654.497	3887.126
654.625	3865.824
654.753	3826.756
654.881	3845.731
655.010	3880.588
655.138	3819.076
655.266	3799.605
655.394	3814.899
655.522	3832.824
655.650	3765.092
655.778	3829.655
655.906	3773.941
656.035	3720.017
656.163	3737.681
656.291	3739.437
656.419	3759.731
656.547	3733.118
656.675	3729.697
656.803	3719.798
656.931	3709.941
657.060	3700.908
657.188	3685.731
657.316	3670.571
657.444	3674.000
657.572	3677.891
657.700	3667.345
657.828	3650.445
657.956	3689.529
658.085	3717.395
658.213	3685.958
658.341	3670.420
658.469	3680.126
658.597	3719.252
658.725	3650.437
658.853	3639.521
658.981	3615.840
659.110	3663.580
659.238	3655.571
659.366	3623.429
659.494	3610.782
659.622	3583.429
659.750	3582.017
659.878	3573.882
660.006	3583.370
660.135	3561.790
660.263	3580.403
660.391	3643.294
660.519	3607.504
660.647	3519.445
660.775	3517.059
660.903	3507.059
661.031	3479.672
661.160	3553.815
661.288	3515.479
661.416	3514.815
661.544	3515.059
661.672	3485.538
661.800	3479.697
661.928	3469.782
662.056	3518.622
662.185	3434.630
662.313	3456.303
662.441	3513.118
662.569	3440.218
662.697	3414.412
662.825	3417.933
662.953	3407.319
663.081	3397.017
663.210	3394.916
663.338	3381.118
663.466	3362.042
663.594	3401.387
663.722	3350.983
663.850	3365.487
663.978	3346.202
664.106	3428.958
664.235	3338.622
664.363	3376.210
664.491	3351.992
664.619	3341.387
664.747	3294.958
664.875	3322.739
665.003	3328.933
665.131	3275.387
665.260	3327.723
665.388	3277.782
665.516	3260.059
665.644	3282.882
665.772	3275.429
665.900	3282.521
666.028	3246.303
666.156	3249.756
666.285	3228.706
666.413	3248.420
666.541	3246.235
666.669	3220.655
666.797	3177.950
666.925	3204.025
667.053	3239.681
667.181	3169.202
667.310	3201.790
667.438	3200.697
667.566	3175.395
667.694	3192.294
667.822	3179.563
667.950	3142.118
668.078	3144.294
668.206	3132.807
668.335	3091.966
668.463	3126.176
668.591	3124.202
668.719	3124.244
668.847	3115.815
668.975	3085.790
669.103	3086.714
669.231	3106.462
669.360	3050.529
669.488	3072.193
669.616	3034.714
669.744	3066.134
669.872	3027.252
670.000	3030.092
670.128	3016.588
670.256	3012.076
670.385	3018.118
670.513	2995.328
670.641	3012.975
670.769	3021.899
670.897	2976.437
671.025	2993.798
671.153	2972.294
671.281	2982.496
671.410	2992.353
671.538	2962.437
671.666	2971.605
671.794	2977.538
671.922	2934.454
672.050	2975.580
672.178	2901.546
672.306	2920.176
672.435	2930.664
672.563	2908.084
672.691	2927.546
672.819	2895.992
672.947	2871.782
673.075	2859.218
673.203	2876.050
673.331	2831.269
673.460	2841.916
673.588	2826.983
673.716	2844.235
673.844	2811.084
673.972	2812.765
674.100	2791.345
674.228	2791.076
674.356	2767.824
674.485	2773.193
674.613	2777.538
674.741	2755.748
674.869	2729.336
674.997	2766.756
675.125	2732.126
675.253	2686.555
675.381	2724.908
675.510	2678.118
675.638	2712.092
675.766	2662.950
675.894	2695.193
676.022	2649.487
676.150	2645.916
676.278	2666.303
676.406	2637.109
676.535	2653.202
676.663	2639.496
676.791	2616.286
676.919	2593.580
677.047	2565.891
677.175	2568.311
677.303	2642.487
677.431	2533.034
677.560	2546.975
677.688	2530.294
677.816	2559.731
677.944	2518.933
678.072	2498.336
678.200	2486.328
678.328	2496.706
678.456	2485.235
678.585	2472.261
678.713	2458.916
678.841	2444.849
678.969	2447.849
679.097	2441.134
679.225	2448.059
679.353	2429.739
679.481	2397.555
679.610	2412.420
679.738	2381.588
679.866	2396.050
679.994	2390.370
680.122	2391.361
680.250	2364.613
680.378	2377.513
680.506	2344.370
680.635	2343.605
680.763	2342.538
680.891	2323.664
681.019	2336.286
681.147	2326.176
681.275	2304.118
681.403	2290.580
681.531	2311.193
681.660	2288.176
681.788	2281.697
681.916	2259.824
682.044	2280.479
682.172	2244.479
682.300	2235.168
682.428	2252.765
682.556	2244.706
682.685	2240.748
682.813	2219.202
682.941	2202.798
683.069	2200.151
683.197	2199.807
683.325	2188.387
683.453	2191.101
683.581	2165.555
683.710	2154.916
683.838	2182.723
683.966	2148.958
684.094	2163.756
684.222	2158.008
684.350	2146.622
684.478	2151.706
684.606	2142.672
684.735	2129.681
684.863	2116.134
684.991	2105.891
685.119	2117.261
685.247	2118.151
685.375	2077.958
685.503	2088.218
685.631	2099.815
685.760	2083.235
685.888	2080.647
686.016	2071.126
686.144	2060.235
686.272	2046.933
686.400	2050.966
686.528	2026.908
686.656	2039.168
686.785	2019.244
686.913	2038.118
687.041	2011.143
687.169	2011.555
687.297	2012.017
687.425	1993.866
687.553	1994.109
687.681	2001.958
687.810	1975.773
687.938	1965.765
688.066	1982.092
688.194	1982.824
688.322	1970.706
688.450	1948.462
688.578	1963.689
688.706	1955.765
688.835	1946.933
688.963	1951.807
689.091	1954.832
689.219	1917.176
689.347	1913.681
689.475	1910.899
689.603	1897.403
689.731	1910.697
689.860	1900.168
689.988	1911.664
690.116	1903.134
690.244	1907.109
690.372	1883.000
690.500	1888.336
690.628	1882.681
690.756	1878.815
690.885	1863.403
691.013	1847.210
691.141	1855.227
691.269	1844.857
691.397	1847.538
691.525	1835.857
691.653	1844.975
691.781	1837.462
691.910	1816.555
692.038	1816.025
692.166	1812.504
692.294	1811.773
692.422	1800.613
692.550	1803.555
692.678	1798.252
692.806	1791.748
692.935	1773.908
693.063	1760.294
693.191	1767.059
693.319	1753.403
693.447	1747.067
693.575	1749.420
693.703	1746.286
693.831	1738.084
693.960	1734.840
694.088	1729.714
694.216	1719.857
694.344	1710.160
694.472	1720.429
694.600	1695.571
694.728	1690.319
694.856	1685.647
694.985	1698.588
695.113	1681.731
695.241	1671.378
695.369	1672.513
695.497	1666.857
695.625	1674.908
695.753	1653.008
695.881	1640.303
696.010	1635.790
696.138	1630.571
696.266	1630.630
696.394	1628.244
696.522	1603.908
696.650	1599.395
696.778	1601.151
696.906	1592.067
697.035	1583.395
697.163	1571.008
697.291	1578.092
697.419	1561.202
697.547	1553.479
697.675	1565.538
697.803	1553.899
697.931	1540.420
698.060	1531.109
698.188	1526.958
698.316	1525.000
698.444	1513.613
698.572	1500.605
698.700	1516.076
698.828	1505.529
698.956	1490.849
699.085	1480.941
699.213	1465.630
699.341	1467.941
699.469	1471.227
699.597	1468.050
699.725	1463.286
699.853	1437.193
699.981	1449.361
700.110	1425.412
700.238	1440.412
700.366	1430.303
700.494	1413.412
700.622	1428.975
700.750	1396.496
700.878	1408.950
701.006	1382.908
701.135	1397.143
701.263	1388.571
701.391	1370.874
701.519	1384.235
701.647	1368.025
701.775	1371.840
701.903	1358.630
702.031	1358.210
702.160	1354.731
702.288	1353.866
702.416	1347.504
702.544	1334.849
702.672	1337.244
702.800	1317.714
702.928	1326.454
703.056	1318.286
703.185	1307.840
703.313	1309.874
703.441	1300.412
703.569	1298.630
703.697	1301.311
703.825	1291.395
703.953	1293.370
704.081	1272.756
704.210	1268.916
704.338	1264.639
704.466	1261.815
704.594	1261.681
704.722	1254.798
704.850	1258.185
704.978	1241.773
705.106	1248.395
705.235	1225.336
705.363	1226.882
705.491	1231.756
705.619	1217.807
705.747	1211.605
705.875	1212.849
706.003	1202.706
706.131	1210.496
706.260	1179.924
706.388	1181.807
706.516	1184.227
706.644	1176.328
706.772	1171.798
706.900	1163.790
707.028	1157.908
707.156	1159.798
707.285	1148.933
707.413	1142.933
707.541	1130.840
707.669	1131.807
707.797	1126.059
707.925	1134.504
708.053	1112.706
708.181	1113.387
708.310	1106.958
708.438	1107.639
708.566	1094.353
708.694	1089.445
708.822	1102.504
708.950	1091.403
709.078	1075.387
709.206	1072.765
709.335	1072.866
709.463	1060.521
709.591	1058.630
709.719	1051.714
709.847	1046.571
709.975	1047.748
710.103	1034.462
710.231	1038.538
710.360	1025.311
710.488	1018.966
710.616	1008.681
710.744	1015.731
710.872	1016.252
711.000	1001.025
711.128	986.933
711.256	990.378
711.385	990.034
711.513	987.513
711.641	984.496
711.769	973.571
711.897	973.076
712.025	957.647
712.153	961.714
712.281	957.008
712.410	959.126
712.538	956.202
712.666	945.168
712.794	943.378
712.922	932.546
713.050	930.185
713.178	922.546
713.306	941.076
713.435	923.269
713.563	918.076
713.691	924.513
713.819	909.580
713.947	904.235
714.075	901.143
714.203	903.546
714.331	899.538
714.460	889.689
714.588	894.319
714.716	885.798
714.844	881.471
714.972	869.975
715.100	872.412
715.228	871.345
715.356	865.765
715.485	864.353
715.613	854.655
715.741	854.025
715.869	851.655
715.997	838.437
716.125	836.420
716.253	842.059
716.381	839.496
716.510	837.311
716.638	834.849
716.766	824.118
716.894	820.630
717.022	818.731
717.150	816.252
717.278	813.412
717.406	810.513
717.535	805.832
717.663	804.908
717.791	808.815
717.919	791.042
718.047	791.689
718.175	795.160
718.303	797.891
718.431	787.689
718.560	780.227
718.688	772.143
718.816	774.639
718.944	774.160
719.072	771.109
719.200	769.361
719.328	759.429
719.456	758.202
719.585	763.345
719.713	757.118
719.841	749.076
719.969	740.790
720.097	742.168
720.225	738.092
720.353	744.756
720.481	740.235
720.610	735.882
720.738	725.034
720.866	724.420
720.994	723.588
721.122	724.361
721.250	717.050
721.378	711.832
721.506	714.899
721.635	712.387
721.763	703.143
721.891	706.496
722.019	697.840
722.147	695.807
722.275	692.353
722.403	689.958
722.531	687.580
722.660	686.504
722.788	679.798
722.916	677.782
723.044	673.697
723.172	676.420
723.300	671.277
723.428	664.529
723.556	661.748
723.685	660.832
723.813	662.336
723.941	654.807
724.069	657.025
724.197	654.832
724.325	643.294
724.453	640.513
724.581	642.832
724.710	638.151
724.838	634.790
724.966	626.832
725.094	627.403
725.222	618.504
725.350	625.118
725.478	623.992
725.606	614.008
725.735	607.697
725.863	614.723
725.991	600.983
726.119	602.563
726.247	595.840
726.375	598.639
726.503	590.849
726.631	593.487
726.760	587.496
726.888	589.790
727.016	585.790
727.144	581.714
727.272	580.042
727.400	575.798
727.528	569.824
727.656	565.941
727.785	568.613
727.913	568.471
728.041	555.529
728.169	560.555
728.297	553.168
728.425	554.941
728.553	549.269
728.681	545.202
728.810	542.101
728.938	539.697
729.066	543.563
729.194	535.328
729.322	538.336
729.450	531.303
729.578	531.815
729.706	530.059
729.835	527.714
729.963	518.521
730.091	517.849
730.219	515.134
730.347	514.101
730.475	508.025
730.603	511.975
730.731	513.521
730.860	503.815
730.988	507.261
731.116	500.462
731.244	499.941
731.372	494.681
731.500	496.227
731.628	488.882
731.756	488.487
731.885	485.134
732.013	484.471
732.141	479.580
732.269	484.639
732.397	483.361
732.525	478.429
732.653	475.765
732.781	470.361
732.910	474.546
733.038	475.345
733.166	461.168
733.294	466.992
733.422	461.714
733.550	466.395
733.678	463.782
733.806	463.513
733.935	462.487
734.063	451.664
734.191	454.134
734.319	452.118
734.447	448.261
734.575	449.664
734.703	447.966
734.831	443.126
734.960	439.420
735.088	443.504
735.216	441.672
735.344	434.647
735.472	434.882
735.600	434.975
735.728	436.269
735.856	429.655
735.985	431.874
736.113	425.412
736.241	428.798
736.369	424.345
736.497	418.017
736.625	424.731
736.753	421.782
736.881	421.655
737.010	415.176
737.138	411.235
737.266	413.008
737.394	411.782
737.522	414.622
737.650	406.924
737.778	411.235
737.906	403.739
738.035	398.420
738.163	405.765
738.291	399.613
738.419	396.420
738.547	396.118
738.675	400.454
738.803	397.042
738.931	391.723
739.060	392.672
739.188	392.454
739.316	387.731
739.444	387.958
739.572	382.723
739.700	382.269
739.828	382.689
739.956	376.992
740.085	381.571
740.213	377.109
740.341	373.370
740.469	374.697
740.597	373.210
740.725	375.042
740.853	372.420
740.981	369.185
741.110	364.277
741.238	369.739
741.366	366.723
741.494	364.866
741.622	361.420
741.750	365.059
741.878	361.067
742.006	357.857
742.135	355.462
742.263	359.874
742.391	348.832
742.519	355.319
742.647	353.017
742.775	356.714
742.903	353.496
743.031	348.277
743.160	347.706
743.288	347.118
743.416	340.336
743.544	341.714
743.672	345.134
743.800	339.429
743.928	339.286
744.056	337.244
744.185	341.782
744.313	334.689
744.441	335.916
744.569	333.496
744.697	332.916
744.825	332.832
744.953	330.908
745.081	329.849
745.210	328.933
745.338	327.958
745.466	321.992
745.594	328.193
745.722	324.798
745.850	320.244
745.978	320.950
746.106	321.235
746.235	321.941
746.363	318.546
746.491	319.756
746.619	315.176
746.747	315.059
746.875	310.706
747.003	311.151
747.131	310.765
747.260	308.336
747.388	309.655
747.516	309.378
747.644	304.504
747.772	302.504
747.900	300.790
748.028	303.378
748.156	301.160
748.285	301.328
748.413	296.916
748.541	299.025
748.669	299.168
748.797	293.832
748.925	293.899
749.053	296.134
749.181	292.992
749.310	293.168
749.438	289.462
749.566	289.487
749.694	292.445
749.822	287.622
749.950	288.227
750.078	287.042
750.206	282.950
750.335	284.790
750.463	287.076
750.591	281.378
750.719	283.471
750.847	275.252
750.975	274.387
751.103	273.891
751.231	276.126
751.360	275.160
751.488	275.571
751.616	271.462
751.744	273.849
751.872	271.387
752.000	271.513
752.128	271.000
752.256	271.118
752.385	265.101
752.513	266.975
752.641	260.286
752.769	266.134
752.897	265.899
753.025	257.193
753.153	262.706
753.281	262.008
753.410	259.134
753.538	257.697
753.666	258.605
753.794	256.571
753.922	255.916
754.050	253.832
754.178	252.286
754.306	254.529
754.435	254.185
754.563	254.429
754.691	252.126
754.819	248.168
754.947	252.588
755.075	253.084
755.203	250.277
755.331	246.807
755.460	246.487
755.588	243.546
755.716	244.622
755.844	242.353
755.972	244.580
756.100	247.613
756.228	241.655
756.356	241.319
756.485	241.092
756.613	240.521
756.741	240.185
756.869	239.311
756.997	240.118
757.125	237.857
757.253	236.420
757.381	234.681
757.510	233.000
757.638	236.412
757.766	234.647
757.894	231.597
758.022	232.546
758.150	228.496
758.278	232.790
758.406	226.916
758.535	230.235
758.663	232.311
758.791	226.479
758.919	226.664
759.047	226.118
759.175	227.588
759.303	225.521
759.431	223.857
759.560	227.773
759.688	224.639
759.816	224.370
759.944	220.622
760.072	219.353
760.200	220.605
760.328	222.143
760.456	218.840
760.585	221.739
760.713	218.336
760.841	215.429
760.969	218.311
761.097	215.126
761.225	216.563
761.353	216.244
761.481	216.849
761.610	211.765
761.738	214.588
761.866	210.782
761.994	211.782
762.122	209.445
762.250	208.378
762.378	210.008
762.506	207.849
762.635	209.706
762.763	208.916
762.891	209.655
763.019	206.050
763.147	204.395
763.275	206.613
763.403	204.950
763.531	203.647
763.660	203.202
763.788	202.975
763.916	206.109
764.044	204.000
764.172	203.756
764.300	202.555
764.428	200.639
764.556	201.681
764.685	199.529
764.813	198.689
764.941	200.613
765.069	197.983
765.197	195.681
765.325	197.059
765.453	193.958
765.581	196.496
765.710	194.168
765.838	194.050
765.966	196.504
766.094	193.000
766.222	192.983
766.350	192.496
766.478	192.992
766.606	191.790
766.735	190.235
766.863	189.025
766.991	189.227
767.119	192.555
767.247	188.076
767.375	190.462
767.503	188.420
767.631	188.067
767.760	187.824
767.888	186.311
768.016	186.866
768.144	184.345
768.272	185.429
768.400	186.756
768.528	186.294
768.656	183.143
768.785	185.647
768.913	181.202
769.041	182.924
769.169	180.134
769.297	181.294
769.425	179.664
769.553	181.471
769.681	179.672
769.810	183.050
769.938	177.739
770.066	181.832
770.194	178.555
770.322	178.672
770.450	176.345
770.578	178.739
770.706	178.739
770.835	175.185
770.963	175.655
771.091	175.723
771.219	176.084
771.347	175.916
771.475	176.773
771.603	174.202
771.731	173.723
771.860	174.336
771.988	175.580
772.116	172.756
772.244	172.202
772.372	172.042
772.500	173.731
772.628	171.613
772.756	170.244
772.885	172.437
773.013	169.143
773.141	169.101
773.269	169.597
773.397	168.067
773.525	168.899
773.653	170.950
773.781	166.672
773.910	166.731
774.038	166.958
774.166	166.269
774.294	167.437
774.422	162.992
774.550	165.227
774.678	163.546
774.806	166.017
774.935	165.605
775.063	164.479
775.191	165.882
775.319	162.185
775.447	164.437
775.575	161.008
775.703	164.185
775.831	161.395
775.960	161.244
776.088	161.857
776.216	164.210
776.344	161.008
776.472	163.807
776.600	161.151
776.728	159.538
776.856	159.748
776.985	160.269
777.113	157.025
777.241	158.765
777.369	159.748
777.497	156.840
777.625	157.908
777.753	156.017
777.881	157.185
778.010	155.588
778.138	158.319
778.266	155.437
778.394	154.496
778.522	155.336
778.650	155.521
778.778	153.067
778.906	154.294
779.035	156.252
779.163	154.756
779.291	155.235
779.419	153.782
779.547	153.756
779.675	153.555
779.803	154.521
779.931	153.092
780.060	153.429
780.188	152.034
780.316	152.496
780.444	152.050
780.572	151.235
780.700	152.731
780.828	149.143
780.956	153.008
781.085	149.655
781.213	149.874
781.341	150.866
781.469	149.176
781.597	149.588
781.725	151.445
781.853	148.294
781.981	148.008
782.110	149.571
782.238	149.571
782.366	147.084
782.494	145.277
782.622	149.807
782.750	148.563
782.878	148.681
783.006	148.605
783.135	145.193
783.263	145.471
783.391	145.563
783.519	143.924
783.647	142.773
783.775	145.429
783.903	144.529
784.031	143.588
784.160	144.017
784.288	145.084
784.416	142.193
784.544	143.218
784.672	142.479
784.800	140.866
784.928	143.176
785.056	141.420
785.185	144.597
785.313	142.319
785.441	139.832
785.569	142.361
785.697	141.445
785.825	140.210
785.953	141.025
786.081	140.849
786.210	140.025
786.338	141.924
786.466	139.765
786.594	138.370
786.722	139.101
786.850	139.143
786.978	138.613
787.106	140.025
787.235	138.958
787.363	140.042
787.491	138.294
787.619	137.529
787.747	137.555
787.875	136.126
788.003	135.824
788.131	134.655
788.260	135.479
788.388	138.067
788.516	135.311
788.644	134.538
788.772	136.202
788.900	135.521
789.028	135.084
789.156	134.504
789.285	134.176
789.413	132.798
789.541	135.076
789.669	133.588
789.797	132.546
789.925	135.739
790.053	134.437
790.181	133.782
790.310	133.378
790.438	133.487
790.566	133.143
790.694	131.151
790.822	134.042
790.950	132.336
791.078	131.706
791.206	131.168
791.335	130.748
791.463	131.714
791.591	132.655
791.719	133.109
791.847	129.798
791.975	128.571
792.103	132.336
792.231	131.605
792.360	129.992
792.488	130.101
792.616	130.118
792.744	130.975
792.872	129.639
793.000	129.479
793.128	128.773
793.256	129.563
793.385	128.529
793.513	129.244
793.641	129.840
793.769	129.798
793.897	129.950
794.025	128.109
794.153	128.571
794.281	129.210
794.410	127.042
794.538	126.050
794.666	128.336
794.794	127.571
794.922	126.504
795.050	127.059
795.178	126.723
795.306	124.756
795.435	125.479
795.563	127.050
795.691	125.664
795.819	125.353
795.947	125.824
796.075	126.479
796.203	126.714
796.331	123.824
796.460	124.555
796.588	125.605
796.716	124.782
796.844	125.059
796.972	126.210
797.100	123.924
797.228	125.227
797.356	126.815
797.485	124.546
797.613	123.697
797.741	122.714
797.869	125.101
797.997	123.412
798.125	124.143
798.253	123.588
798.381	122.899
798.510	122.227
798.638	121.975
798.766	123.025
798.894	123.605
799.022	121.714
799.150	122.042
799.278	122.269
799.406	123.563
799.535	122.017
799.663	122.353
799.791	121.958
799.919	120.824
800.047	122.445
800.175	121.487
800.303	122.008
800.431	121.244
800.560	121.042
800.688	120.555
800.816	121.328
800.944	119.941
801.072	120.361
801.200	122.966
801.328	121.504
801.456	121.235
801.585	122.126
801.713	120.798
801.841	120.815
801.969	119.899
802.097	120.370
802.225	121.916
802.353	119.420
802.481	119.462
802.610	120.622
802.738	120.655
802.866	121.059
802.994	118.504
803.122	121.092
803.250	120.966
803.378	120.311
803.506	118.353
803.635	121.109
803.763	119.975
803.891	119.513
804.019	117.832
804.147	118.412
804.275	118.807
804.403	118.655
804.531	118.454
804.660	118.479
804.788	117.824
804.916	117.916
805.044	117.807
805.172	117.983
805.300	117.336
805.428	118.429
805.556	117.235
805.685	118.765
805.813	119.605
805.941	116.092
806.069	118.420
806.197	118.336
806.325	118.462
806.453	117.487
806.581	116.143
806.710	115.714
806.838	115.420
806.966	117.429
807.094	116.261
807.222	117.664
807.350	116.672
807.478	116.134
807.606	116.050
807.735	115.966
807.863	116.395
807.991	117.118
808.119	116.546
808.247	116.277
808.375	116.412
808.503	114.924
808.631	115.521
808.760	114.992
808.888	114.597
809.016	116.227
809.144	116.504
809.272	115.395
809.400	116.849
809.528	114.908
809.656	116.168
809.785	113.639
809.913	114.420
810.041	114.387
810.169	113.706
810.297	115.042
810.425	115.303
810.553	113.277
810.681	115.269
810.810	114.849
810.938	115.597
811.066	112.866
811.194	113.891
811.322	115.244
811.450	113.849
811.578	113.756
811.706	113.723
811.835	113.185
811.963	114.664
812.091	114.261
812.219	114.084
812.347	113.504
812.475	114.353
812.603	114.529
812.731	113.067
812.860	114.487
812.988	114.345
813.116	112.966
813.244	114.109
813.372	114.008
813.500	113.126
813.628	112.782
813.756	111.832
813.885	112.605
814.013	111.697
814.141	112.832
814.269	112.832
814.397	113.496
814.525	113.185
814.653	112.840
814.781	113.126
814.910	112.731
815.038	113.378
815.166	112.874
815.294	111.151
815.422	113.303
815.550	111.950
815.678	112.000
815.806	112.286
815.935	111.529
816.063	111.311
816.191	112.311
816.319	112.168
816.447	112.538
816.575	112.008
816.703	112.345
816.831	112.471
816.960	112.807
817.088	111.336
817.216	110.882
817.344	111.731
817.472	112.983
817.600	111.277
817.728	111.529
817.856	112.134
817.985	109.714
818.113	110.739
818.241	111.353
818.369	111.118
818.497	112.101
818.625	111.513
818.753	111.370
818.881	111.412
819.010	109.563
819.138	111.227
819.266	111.706
819.394	110.378
819.522	109.294
819.650	111.412
819.778	109.756
819.906	110.269
820.035	109.891
820.163	111.538
820.291	108.689
820.419	109.824
820.547	111.773
820.675	109.647
820.803	110.143
820.931	110.664
821.060	108.555
821.188	110.017
821.316	110.504
821.444	110.412
821.572	110.445
821.700	109.504
821.828	110.387
821.956	111.681
822.085	109.277
822.213	110.933
822.341	110.000
822.469	109.370
822.597	109.412
822.725	109.269
822.853	109.983
822.981	109.966
823.110	109.924
823.238	107.815
823.366	109.748
823.494	109.076
823.622	108.950
823.750	109.185
823.878	107.714
824.006	110.092
824.135	109.244
824.263	110.277
824.391	109.664
824.519	110.067
824.647	110.017
824.775	109.521
824.903	110.050
825.031	109.773
825.160	111.176
825.288	108.908
825.416	109.345
825.544	108.529
825.672	109.891
825.800	109.420
825.928	109.244
826.056	109.336
826.185	109.084
826.313	109.798
826.441	108.958
826.569	109.042
826.697	108.933
826.825	108.639
826.953	109.008
827.081	108.420
827.210	108.706
827.338	107.412
827.466	108.445
827.594	109.303
827.722	108.723
827.850	108.017
827.978	107.891
828.106	108.748
828.235	109.462
828.363	109.076
828.491	108.966
828.619	108.168
828.747	108.546
828.875	108.328
829.003	109.361
829.131	110.118
829.260	109.513
829.388	108.580
829.516	109.185
829.644	108.420
829.772	108.681
829.900	107.992
830.028	108.697
830.156	108.933
830.285	108.202
830.413	109.092
830.541	108.109
830.669	108.042
830.797	108.748
830.925	108.345
831.053	107.101
831.181	107.605
831.310	108.336
831.438	108.202
831.566	108.294
831.694	108.639
831.822	107.815
831.950	107.765
832.078	107.975
832.206	108.202
832.335	106.555
832.463	107.924
832.591	108.571
832.719	106.899
832.847	108.050
832.975	106.613
833.103	108.521
833.231	107.185
833.360	109.370
833.488	108.286
833.616	107.210
833.744	105.941
833.872	108.017
834.000	108.487
834.128	108.353
834.256	107.748
834.385	107.622
834.513	107.252
834.641	105.773
834.769	106.160
834.897	107.605
835.025	106.546
835.153	106.731
835.281	106.529
835.410	107.017
835.538	107.454
835.666	106.706
835.794	107.622
835.922	107.571
836.050	106.605
836.178	106.992
836.306	107.042
836.435	107.513
836.563	107.269
836.691	107.773
836.819	108.286
836.947	106.050
837.075	106.084
837.203	105.613
837.331	107.361
837.460	107.513
837.588	106.706
837.716	107.513
837.844	107.664
837.972	106.445
838.100	107.353
838.228	106.118
838.356	106.227
838.485	104.950
838.613	106.924
838.741	107.185
838.869	106.773
838.997	106.891
839.125	105.958
839.253	105.790
839.381	106.840
839.510	106.370
839.638	106.059
839.766	106.731
839.894	106.059
840.022	106.849
840.150	107.008
840.278	106.042
840.406	106.866
840.535	107.134
840.663	105.370
840.791	105.101
840.919	105.958
841.047	105.328
841.175	106.723
841.303	106.597
841.431	106.639
841.560	106.580
841.688	105.622
841.816	106.261
841.944	105.563
842.072	105.639
842.200	106.655
842.328	106.840
842.456	105.824
842.585	107.252
842.713	106.319
842.841	106.042
842.969	106.134
843.097	106.479
843.225	106.025
843.353	105.420
843.481	105.504
843.610	106.353
843.738	105.420
843.866	105.765
