70-90-90_at_679.99nm_cut_at_1283.50Y_01.dat
24.01.2024
11:28:33
cut middle at Y: 1283.50
top cursor: 1343 down cursor: 1224 mean of: 119 lines , 2560 datapoints
wavelength(nm)	intensity[arb. units]
515.994	440.529
516.122	418.975
516.250	419.067
516.378	408.202
516.506	407.580
516.635	412.975
516.763	413.311
516.891	415.235
517.019	420.471
517.147	412.630
517.275	415.261
517.403	417.630
517.531	416.672
517.660	418.294
517.788	418.025
517.916	419.143
518.044	417.412
518.172	420.185
518.300	416.378
518.428	415.857
518.556	417.992
518.685	420.000
518.813	421.345
518.941	420.874
519.069	419.630
519.197	418.445
519.325	420.101
519.453	421.681
519.581	427.857
519.710	425.000
519.838	426.017
519.966	424.429
520.094	429.479
520.222	425.059
520.350	427.597
520.478	435.008
520.606	435.849
520.735	428.269
520.863	429.134
520.991	435.647
521.119	434.555
521.247	435.639
521.375	431.588
521.503	438.067
521.631	441.933
521.760	436.756
521.888	441.840
522.016	443.874
522.144	443.689
522.272	443.370
522.400	445.496
522.528	450.681
522.656	444.824
522.785	446.454
522.913	453.597
523.041	444.303
523.169	445.252
523.297	449.840
523.425	450.630
523.553	450.185
523.681	451.202
523.810	450.328
523.938	451.605
524.066	452.420
524.194	452.235
524.322	451.664
524.450	448.437
524.578	451.109
524.706	450.101
524.835	451.748
524.963	456.874
525.091	451.748
525.219	453.067
525.347	455.697
525.475	450.454
525.603	451.630
525.731	454.840
525.860	455.941
525.988	450.647
526.116	450.765
526.244	451.479
526.372	449.899
526.500	455.639
526.628	461.672
526.756	453.437
526.885	456.496
527.013	453.916
527.141	456.319
527.269	454.017
527.397	457.765
527.525	458.933
527.653	455.697
527.781	451.345
527.910	456.916
528.038	456.017
528.166	461.639
528.294	460.731
528.422	462.084
528.550	462.387
528.678	463.597
528.806	461.109
528.935	466.210
529.063	461.655
529.191	469.034
529.319	463.176
529.447	468.689
529.575	470.277
529.703	468.176
529.831	467.429
529.960	464.983
530.088	469.471
530.216	476.538
530.344	467.193
530.472	472.496
530.600	478.513
530.728	473.395
530.856	475.504
530.985	478.176
531.113	472.210
531.241	479.933
531.369	475.185
531.497	478.504
531.625	478.899
531.753	477.286
531.881	482.580
532.010	481.714
532.138	476.798
532.266	475.193
532.394	479.832
532.522	476.109
532.650	475.765
532.778	486.504
532.906	482.874
533.035	479.504
533.163	481.076
533.291	477.303
533.419	473.370
533.547	481.798
533.675	478.908
533.803	474.672
533.931	479.353
534.060	476.916
534.188	485.050
534.316	477.924
534.444	475.529
534.572	478.882
534.700	480.134
534.828	477.202
534.956	479.454
535.085	481.798
535.213	479.076
535.341	486.731
535.469	481.269
535.597	481.076
535.725	490.429
535.853	482.420
535.981	485.580
536.110	493.227
536.238	493.748
536.366	492.546
536.494	488.874
536.622	492.723
536.750	489.706
536.878	489.134
537.006	493.387
537.135	494.748
537.263	500.924
537.391	500.555
537.519	497.832
537.647	499.866
537.775	500.588
537.903	505.059
538.031	501.689
538.160	507.739
538.288	506.899
538.416	505.076
538.544	502.345
538.672	507.252
538.800	504.966
538.928	508.286
539.056	508.277
539.185	509.311
539.313	506.622
539.441	514.353
539.569	515.345
539.697	512.336
539.825	513.941
539.953	507.983
540.081	509.176
540.210	512.866
540.338	516.118
540.466	518.639
540.594	517.076
540.722	511.655
540.850	518.983
540.978	518.084
541.106	518.193
541.235	512.059
541.363	515.454
541.491	524.286
541.619	512.647
541.747	511.353
541.875	516.294
542.003	514.672
542.131	512.126
542.260	518.084
542.388	522.378
542.516	520.126
542.644	520.118
542.772	516.681
542.900	514.412
543.028	520.412
543.156	520.261
543.285	523.580
543.413	519.487
543.541	522.403
543.669	522.655
543.797	527.597
543.925	523.311
544.053	520.908
544.181	525.521
544.310	519.773
544.438	520.227
544.566	527.529
544.694	524.874
544.822	525.630
544.950	527.546
545.078	533.118
545.206	530.840
545.335	532.387
545.463	524.975
545.591	533.798
545.719	529.908
545.847	526.429
545.975	535.210
546.103	530.681
546.231	532.092
546.360	529.891
546.488	536.387
546.616	536.521
546.744	536.924
546.872	531.437
547.000	536.773
547.128	536.580
547.256	535.765
547.385	533.916
547.513	535.647
547.641	539.882
547.769	538.176
547.897	540.513
548.025	541.798
548.153	543.092
548.281	539.168
548.410	541.731
548.538	542.815
548.666	538.824
548.794	539.269
548.922	542.059
549.050	540.647
549.178	545.513
549.306	544.445
549.435	550.336
549.563	543.723
549.691	536.815
549.819	546.832
549.947	551.092
550.075	546.647
550.203	541.193
550.331	546.218
550.460	548.756
550.588	542.782
550.716	551.723
550.844	546.403
550.972	542.303
551.100	545.941
551.228	548.361
551.356	534.336
551.485	543.613
551.613	544.546
551.741	542.218
551.869	536.109
551.997	537.723
552.125	537.706
552.253	539.689
552.381	534.151
552.510	533.403
552.638	533.866
552.766	539.807
552.894	529.622
553.022	535.328
553.150	531.958
553.278	535.101
553.406	537.210
553.535	530.832
553.663	539.504
553.791	530.454
553.919	535.050
554.047	538.513
554.175	531.798
554.303	531.076
554.431	529.571
554.560	536.345
554.688	537.235
554.816	537.429
554.944	532.824
555.072	540.126
555.200	539.866
555.328	537.899
555.456	544.706
555.585	538.227
555.713	539.479
555.841	550.118
555.969	542.067
556.097	543.050
556.225	546.000
556.353	549.000
556.481	543.891
556.610	553.160
556.738	550.000
556.866	549.370
556.994	543.697
557.122	547.202
557.250	551.866
557.378	557.017
557.506	551.849
557.635	551.849
557.763	549.899
557.891	558.420
558.019	550.168
558.147	553.193
558.275	554.151
558.403	559.361
558.531	563.479
558.660	560.479
558.788	559.134
558.916	561.588
559.044	554.395
559.172	563.025
559.300	565.739
559.428	563.874
559.556	569.622
559.685	567.605
559.813	564.336
559.941	566.891
560.069	571.664
560.197	566.109
560.325	567.697
560.453	571.261
560.581	567.950
560.710	568.462
560.838	567.076
560.966	574.513
561.094	574.681
561.222	569.840
561.350	563.277
561.478	570.487
561.606	570.277
561.735	569.487
561.863	566.244
561.991	564.613
562.119	564.950
562.247	566.160
562.375	570.059
562.503	571.050
562.631	566.252
562.760	569.076
562.888	571.983
563.016	567.697
563.144	567.916
563.272	572.597
563.400	566.235
563.528	565.378
563.656	568.714
563.785	564.966
563.913	566.109
564.041	570.857
564.169	568.311
564.297	568.916
564.425	563.513
564.553	568.395
564.681	570.353
564.810	570.672
564.938	571.975
565.066	572.319
565.194	576.134
565.322	572.622
565.450	571.639
565.578	576.882
565.706	570.076
565.835	576.050
565.963	571.748
566.091	576.546
566.219	576.933
566.347	581.513
566.475	580.042
566.603	578.202
566.731	583.866
566.860	581.050
566.988	580.966
567.116	583.034
567.244	578.647
567.372	589.244
567.500	586.655
567.628	591.336
567.756	592.546
567.885	590.471
568.013	596.697
568.141	593.143
568.269	595.908
568.397	596.513
568.525	595.185
568.653	601.059
568.781	599.067
568.910	614.387
569.038	601.697
569.166	604.134
569.294	602.235
569.422	609.563
569.550	611.462
569.678	613.370
569.806	610.815
569.935	617.681
570.063	615.756
570.191	615.471
570.319	615.849
570.447	615.714
570.575	618.866
570.703	621.017
570.831	625.807
570.960	624.857
571.088	622.765
571.216	626.445
571.344	632.328
571.472	630.798
571.600	632.731
571.728	629.723
571.856	630.975
571.985	637.353
572.113	636.765
572.241	633.387
572.369	648.706
572.497	641.042
572.625	641.630
572.753	639.798
572.881	638.815
573.010	643.840
573.138	651.420
573.266	644.361
573.394	650.504
573.522	645.202
573.650	644.118
573.778	646.277
573.906	648.118
574.035	647.916
574.163	652.756
574.291	643.689
574.419	653.353
574.547	654.815
574.675	659.924
574.803	652.513
574.931	656.311
575.060	656.151
575.188	654.471
575.316	653.017
575.444	658.387
575.572	662.454
575.700	646.958
575.828	663.765
575.956	659.403
576.085	659.739
576.213	659.933
576.341	656.235
576.469	658.328
576.597	655.563
576.725	654.269
576.853	650.824
576.981	661.521
577.110	661.143
577.238	663.874
577.366	656.899
577.494	656.950
577.622	656.034
577.750	657.681
577.878	652.899
578.006	664.420
578.135	661.370
578.263	662.983
578.391	663.580
578.519	658.748
578.647	667.328
578.775	662.824
578.903	660.529
579.031	665.000
579.160	664.252
579.288	663.908
579.416	661.252
579.544	663.866
579.672	672.521
579.800	669.664
579.928	662.563
580.056	660.328
580.185	663.084
580.313	669.832
580.441	670.235
580.569	670.891
580.697	665.109
580.825	672.328
580.953	682.597
581.081	674.378
581.210	679.000
581.338	676.050
581.466	679.353
581.594	680.269
581.722	674.269
581.850	670.605
581.978	680.227
582.106	680.983
582.235	680.992
582.363	678.866
582.491	681.185
582.619	685.765
582.747	692.008
582.875	693.445
583.003	690.882
583.131	697.151
583.260	696.059
583.388	697.908
583.516	704.748
583.644	706.328
583.772	704.790
583.900	709.437
584.028	710.924
584.156	706.504
584.285	721.202
584.413	719.017
584.541	718.412
584.669	721.866
584.797	718.605
584.925	724.143
585.053	723.950
585.181	728.613
585.310	734.454
585.438	737.025
585.566	738.731
585.694	741.874
585.822	746.269
585.950	742.294
586.078	744.706
586.206	753.739
586.335	757.227
586.463	751.151
586.591	763.664
586.719	756.571
586.847	767.630
586.975	766.303
587.103	767.437
587.231	765.882
587.360	771.588
587.488	774.782
587.616	773.672
587.744	776.832
587.872	769.084
588.000	770.067
588.128	778.109
588.256	783.487
588.385	776.370
588.513	777.387
588.641	778.655
588.769	792.496
588.897	787.807
589.025	783.933
589.153	788.882
589.281	783.008
589.410	793.790
589.538	792.908
589.666	789.782
589.794	792.655
589.922	800.185
590.050	795.992
590.178	801.546
590.306	802.605
590.435	801.034
590.563	792.252
590.691	799.513
590.819	805.941
590.947	816.899
591.075	803.143
591.203	804.798
591.331	809.983
591.460	816.294
591.588	804.101
591.716	806.160
591.844	813.899
591.972	822.395
592.100	816.798
592.228	823.689
592.356	821.899
592.485	817.445
592.613	817.941
592.741	826.538
592.869	822.202
592.997	834.798
593.125	840.151
593.253	833.630
593.381	830.361
593.510	841.916
593.638	835.101
593.766	835.454
593.894	844.563
594.022	846.042
594.150	844.521
594.278	854.050
594.406	842.059
594.535	847.487
594.663	852.193
594.791	851.529
594.919	860.672
595.047	858.899
595.175	861.739
595.303	865.891
595.431	856.319
595.560	871.580
595.688	866.403
595.816	864.630
595.944	868.622
596.072	873.840
596.200	876.950
596.328	883.471
596.456	881.689
596.585	887.076
596.713	887.092
596.841	890.311
596.969	888.899
597.097	895.000
597.225	895.101
597.353	902.975
597.481	902.244
597.610	900.992
597.738	912.613
597.866	907.218
597.994	914.286
598.122	923.857
598.250	909.966
598.378	915.277
598.506	927.462
598.635	912.513
598.763	927.874
598.891	926.597
599.019	935.807
599.147	926.050
599.275	937.151
599.403	939.126
599.531	940.672
599.660	942.529
599.788	946.395
599.916	942.042
600.044	944.378
600.172	952.941
600.300	956.916
600.428	953.933
600.556	964.588
600.685	971.261
600.813	965.597
600.941	974.563
601.069	970.311
601.197	977.059
601.325	973.168
601.453	981.353
601.581	982.378
601.710	989.160
601.838	996.790
601.966	997.580
602.094	1000.025
602.222	999.664
602.350	999.882
602.478	1000.639
602.606	1016.605
602.735	1008.269
602.863	1017.983
602.991	1023.975
603.119	1030.311
603.247	1027.597
603.375	1030.630
603.503	1031.731
603.631	1040.235
603.760	1043.790
603.888	1048.143
604.016	1049.160
604.144	1048.345
604.272	1047.261
604.400	1061.395
604.528	1055.286
604.656	1066.790
604.785	1071.286
604.913	1079.092
605.041	1080.664
605.169	1078.689
605.297	1088.756
605.425	1082.513
605.553	1092.983
605.681	1096.118
605.810	1093.916
605.938	1101.966
606.066	1102.059
606.194	1106.269
606.322	1102.613
606.450	1114.756
606.578	1116.429
606.706	1113.739
606.835	1119.924
606.963	1122.966
607.091	1129.076
607.219	1127.992
607.347	1122.378
607.475	1137.286
607.603	1140.655
607.731	1140.319
607.860	1131.681
607.988	1146.437
608.116	1138.126
608.244	1149.479
608.372	1145.798
608.500	1148.370
608.628	1144.471
608.756	1151.328
608.885	1161.958
609.013	1149.874
609.141	1160.269
609.269	1158.849
609.397	1155.756
609.525	1160.689
609.653	1165.471
609.781	1165.782
609.910	1153.160
610.038	1160.151
610.166	1161.218
610.294	1165.992
610.422	1171.966
610.550	1167.571
610.678	1168.580
610.806	1178.294
610.935	1182.261
611.063	1173.294
611.191	1176.790
611.319	1165.479
611.447	1181.765
611.575	1180.849
611.703	1177.958
611.831	1192.252
611.960	1181.025
612.088	1189.622
612.216	1189.277
612.344	1202.193
612.472	1185.092
612.600	1198.387
612.728	1187.941
612.856	1191.311
612.985	1192.807
613.113	1196.504
613.241	1211.983
613.369	1209.126
613.497	1212.092
613.625	1210.403
613.753	1209.571
613.881	1215.538
614.010	1214.185
614.138	1213.580
614.266	1209.950
614.394	1205.866
614.522	1214.244
614.650	1231.773
614.778	1221.639
614.906	1246.647
615.035	1228.798
615.163	1226.857
615.291	1236.076
615.419	1240.571
615.547	1236.798
615.675	1233.076
615.803	1239.975
615.931	1257.992
616.060	1250.874
616.188	1253.941
616.316	1246.672
616.444	1254.647
616.572	1262.874
616.700	1263.630
616.828	1276.496
616.956	1285.370
617.085	1292.479
617.213	1289.378
617.341	1275.697
617.469	1281.471
617.597	1291.655
617.725	1297.538
617.853	1296.303
617.981	1299.336
618.110	1313.218
618.238	1305.202
618.366	1318.134
618.494	1310.874
618.622	1318.252
618.750	1319.655
618.878	1329.807
619.006	1321.874
619.135	1341.807
619.263	1335.706
619.391	1344.185
619.519	1341.689
619.647	1359.857
619.775	1358.244
619.903	1365.681
620.031	1366.689
620.160	1364.420
620.288	1368.403
620.416	1379.647
620.544	1373.655
620.672	1394.160
620.800	1372.555
620.928	1401.008
621.056	1391.244
621.185	1403.950
621.313	1406.899
621.441	1421.580
621.569	1436.630
621.697	1422.445
621.825	1432.202
621.953	1434.655
622.081	1448.597
622.210	1436.882
622.338	1442.546
622.466	1438.311
622.594	1447.403
622.722	1458.294
622.850	1457.311
622.978	1466.294
623.106	1456.664
623.235	1483.109
623.363	1462.983
623.491	1466.176
623.619	1469.050
623.747	1472.328
623.875	1484.941
624.003	1486.798
624.131	1481.345
624.260	1471.353
624.388	1491.353
624.516	1499.454
624.644	1499.008
624.772	1501.303
624.900	1501.773
625.028	1504.874
625.156	1519.555
625.285	1509.286
625.413	1523.815
625.541	1508.832
625.669	1517.210
625.797	1521.336
625.925	1525.412
626.053	1523.067
626.181	1545.571
626.310	1529.739
626.438	1533.992
626.566	1530.580
626.694	1529.252
626.822	1528.874
626.950	1542.378
627.078	1552.513
627.206	1546.109
627.335	1562.454
627.463	1550.168
627.591	1556.336
627.719	1553.269
627.847	1551.176
627.975	1553.286
628.103	1568.571
628.231	1566.176
628.360	1565.395
628.488	1569.261
628.616	1571.916
628.744	1563.571
628.872	1572.025
629.000	1568.479
629.128	1576.361
629.256	1598.462
629.385	1585.487
629.513	1566.454
629.641	1581.815
629.769	1582.815
629.897	1587.891
630.025	1594.286
630.153	1603.697
630.281	1606.504
630.410	1587.345
630.538	1614.395
630.666	1601.605
630.794	1600.571
630.922	1593.739
631.050	1592.462
631.178	1599.546
631.306	1603.303
631.435	1606.655
631.563	1613.202
631.691	1597.034
631.819	1612.286
631.947	1626.513
632.075	1618.908
632.203	1625.731
632.331	1623.580
632.460	1611.597
632.588	1631.496
632.716	1627.378
632.844	1620.462
632.972	1635.370
633.100	1640.420
633.228	1640.849
633.356	1618.681
633.485	1634.303
633.613	1632.958
633.741	1628.345
633.869	1630.353
633.997	1633.185
634.125	1639.899
634.253	1623.706
634.381	1632.992
634.510	1647.975
634.638	1632.336
634.766	1637.235
634.894	1642.958
635.022	1631.529
635.150	1630.361
635.278	1660.723
635.406	1641.151
635.535	1646.479
635.663	1656.395
635.791	1642.176
635.919	1659.252
636.047	1651.504
636.175	1646.891
636.303	1645.580
636.431	1662.731
636.560	1652.277
636.688	1657.143
636.816	1656.034
636.944	1655.084
637.072	1663.655
637.200	1651.899
637.328	1652.992
637.456	1664.025
637.585	1669.513
637.713	1660.538
637.841	1664.336
637.969	1665.235
638.097	1655.126
638.225	1668.000
638.353	1673.462
638.481	1680.681
638.610	1678.067
638.738	1673.924
638.866	1671.992
638.994	1676.630
639.122	1680.160
639.250	1690.176
639.378	1685.975
639.506	1664.017
639.635	1691.134
639.763	1672.303
639.891	1682.815
640.019	1686.311
640.147	1683.345
640.275	1690.395
640.403	1686.294
640.531	1691.261
640.660	1682.639
640.788	1711.655
640.916	1690.227
641.044	1702.303
641.172	1701.580
641.300	1711.303
641.428	1707.639
641.556	1720.479
641.685	1709.109
641.813	1704.059
641.941	1726.151
642.069	1723.403
642.197	1723.034
642.325	1709.218
642.453	1733.538
642.581	1731.588
642.710	1713.504
642.838	1736.252
642.966	1728.521
643.094	1723.773
643.222	1721.908
643.350	1732.101
643.478	1740.714
643.606	1752.294
643.735	1732.882
643.863	1726.017
643.991	1764.176
644.119	1750.454
644.247	1759.866
644.375	1745.966
644.503	1775.303
644.631	1775.798
644.760	1771.681
644.888	1759.916
645.016	1759.420
645.144	1774.504
645.272	1761.227
645.400	1759.975
645.528	1761.303
645.656	1759.336
645.785	1762.588
645.913	1776.210
646.041	1775.992
646.169	1756.076
646.297	1757.286
646.425	1770.782
646.553	1766.151
646.681	1766.966
646.810	1754.714
646.938	1782.345
647.066	1763.160
647.194	1763.731
647.322	1760.630
647.450	1755.454
647.578	1762.529
647.706	1762.017
647.835	1767.882
647.963	1758.109
648.091	1769.731
648.219	1759.773
648.347	1762.891
648.475	1751.756
648.603	1761.445
648.731	1745.639
648.860	1742.538
648.988	1756.866
649.116	1752.857
649.244	1722.807
649.372	1736.361
649.500	1745.126
649.628	1752.000
649.756	1731.555
649.885	1717.714
650.013	1727.689
650.141	1713.118
650.269	1720.294
650.397	1729.639
650.525	1713.101
650.653	1723.118
650.781	1705.681
650.910	1712.513
651.038	1692.807
651.166	1700.681
651.294	1698.092
651.422	1689.109
651.550	1685.345
651.678	1673.950
651.806	1685.824
651.935	1683.605
652.063	1665.218
652.191	1669.387
652.319	1688.992
652.447	1659.008
652.575	1654.723
652.703	1638.916
652.831	1657.160
652.960	1647.790
653.088	1643.504
653.216	1622.286
653.344	1635.000
653.472	1647.765
653.600	1634.286
653.728	1644.361
653.856	1632.513
653.985	1645.277
654.113	1640.983
654.241	1635.345
654.369	1615.118
654.497	1635.420
654.625	1620.739
654.753	1622.697
654.881	1620.790
655.010	1629.025
655.138	1615.521
655.266	1610.034
655.394	1594.765
655.522	1609.622
655.650	1592.597
655.778	1598.857
655.906	1610.336
656.035	1600.571
656.163	1585.983
656.291	1596.773
656.419	1598.017
656.547	1598.588
656.675	1577.017
656.803	1592.605
656.931	1587.958
657.060	1585.429
657.188	1582.370
657.316	1582.269
657.444	1573.521
657.572	1563.697
657.700	1563.202
657.828	1581.395
657.956	1568.160
658.085	1592.866
658.213	1561.101
658.341	1568.067
658.469	1551.958
658.597	1570.689
658.725	1578.487
658.853	1563.429
658.981	1555.706
659.110	1567.050
659.238	1552.176
659.366	1552.933
659.494	1556.378
659.622	1545.714
659.750	1553.303
659.878	1548.185
660.006	1560.924
660.135	1540.261
660.263	1544.597
660.391	1536.235
660.519	1544.639
660.647	1536.050
660.775	1538.496
660.903	1531.866
661.031	1531.008
661.160	1524.529
661.288	1518.731
661.416	1528.748
661.544	1521.370
661.672	1518.311
661.800	1524.815
661.928	1516.067
662.056	1506.681
662.185	1505.538
662.313	1507.588
662.441	1524.697
662.569	1508.471
662.697	1513.084
662.825	1499.597
662.953	1501.160
663.081	1490.563
663.210	1501.521
663.338	1510.521
663.466	1491.361
663.594	1479.958
663.722	1476.471
663.850	1477.471
663.978	1475.639
664.106	1489.639
664.235	1493.084
664.363	1488.311
664.491	1464.697
664.619	1474.790
664.747	1476.538
664.875	1473.538
665.003	1443.521
665.131	1469.235
665.260	1457.681
665.388	1440.714
665.516	1450.664
665.644	1455.639
665.772	1457.798
665.900	1446.697
666.028	1450.521
666.156	1443.941
666.285	1445.361
666.413	1452.252
666.541	1437.782
666.669	1437.437
666.797	1425.487
666.925	1430.244
667.053	1441.487
667.181	1419.345
667.310	1413.807
667.438	1415.336
667.566	1417.874
667.694	1418.109
667.822	1415.303
667.950	1410.748
668.078	1405.403
668.206	1408.798
668.335	1408.328
668.463	1413.832
668.591	1401.613
668.719	1395.151
668.847	1394.109
668.975	1390.151
669.103	1387.437
669.231	1399.924
669.360	1393.950
669.488	1391.252
669.616	1371.235
669.744	1378.109
669.872	1366.664
670.000	1381.378
670.128	1368.420
670.256	1364.571
670.385	1358.941
670.513	1367.008
670.641	1362.202
670.769	1355.756
670.897	1358.277
671.025	1346.773
671.153	1358.782
671.281	1352.655
671.410	1347.403
671.538	1333.454
671.666	1343.748
671.794	1343.050
671.922	1335.639
672.050	1322.370
672.178	1328.168
672.306	1317.933
672.435	1318.042
672.563	1325.571
672.691	1308.605
672.819	1327.328
672.947	1298.555
673.075	1296.908
673.203	1300.723
673.331	1291.975
673.460	1288.958
673.588	1282.370
673.716	1297.807
673.844	1288.151
673.972	1288.134
674.100	1280.336
674.228	1271.706
674.356	1266.008
674.485	1269.471
674.613	1257.336
674.741	1247.891
674.869	1262.395
674.997	1254.261
675.125	1253.445
675.253	1232.555
675.381	1245.941
675.510	1233.908
675.638	1234.933
675.766	1229.782
675.894	1227.487
676.022	1218.672
676.150	1210.773
676.278	1217.000
676.406	1215.319
676.535	1201.521
676.663	1198.672
676.791	1187.244
676.919	1193.807
677.047	1198.731
677.175	1178.697
677.303	1181.504
677.431	1178.840
677.560	1172.563
677.688	1173.529
677.816	1158.479
677.944	1166.185
678.072	1156.992
678.200	1154.555
678.328	1139.899
678.456	1137.546
678.585	1138.706
678.713	1137.739
678.841	1123.891
678.969	1130.840
679.097	1132.429
679.225	1127.933
679.353	1124.462
679.481	1109.639
679.610	1125.538
679.738	1116.151
679.866	1109.025
679.994	1108.134
680.122	1101.092
680.250	1094.025
680.378	1091.101
680.506	1091.933
680.635	1087.882
680.763	1091.429
680.891	1073.672
681.019	1086.286
681.147	1075.471
681.275	1057.697
681.403	1054.412
681.531	1061.353
681.660	1059.983
681.788	1052.017
681.916	1047.429
682.044	1057.361
682.172	1043.143
682.300	1037.462
682.428	1042.580
682.556	1042.395
682.685	1042.504
682.813	1033.496
682.941	1033.681
683.069	1024.454
683.197	1034.101
683.325	1016.513
683.453	1024.807
683.581	1000.387
683.710	1003.655
683.838	1014.605
683.966	1007.370
684.094	1007.227
684.222	1009.345
684.350	995.076
684.478	1008.538
684.606	1003.908
684.735	993.924
684.863	991.345
684.991	988.050
685.119	976.345
685.247	976.462
685.375	964.739
685.503	981.479
685.631	977.000
685.760	971.731
685.888	975.303
686.016	965.059
686.144	966.681
686.272	955.025
686.400	969.462
686.528	958.210
686.656	961.017
686.785	950.336
686.913	948.874
687.041	944.218
687.169	944.807
687.297	947.689
687.425	937.824
687.553	943.050
687.681	942.067
687.810	930.832
687.938	924.185
688.066	937.992
688.194	935.269
688.322	925.395
688.450	922.765
688.578	921.193
688.706	919.605
688.835	920.395
688.963	919.756
689.091	918.319
689.219	911.538
689.347	901.714
689.475	910.134
689.603	895.966
689.731	907.025
689.860	905.832
689.988	904.479
690.116	902.798
690.244	905.605
690.372	891.437
690.500	894.143
690.628	898.319
690.756	884.034
690.885	886.185
691.013	883.092
691.141	883.353
691.269	885.294
691.397	878.773
691.525	876.008
691.653	874.370
691.781	873.857
691.910	873.336
692.038	868.697
692.166	859.521
692.294	854.597
692.422	859.042
692.550	857.966
692.678	858.395
692.806	858.059
692.935	857.739
693.063	842.723
693.191	836.983
693.319	849.454
693.447	839.025
693.575	841.244
693.703	835.941
693.831	837.571
693.960	833.118
694.088	837.143
694.216	829.538
694.344	820.034
694.472	828.050
694.600	814.513
694.728	815.756
694.856	817.706
694.985	811.824
695.113	808.143
695.241	813.605
695.369	810.210
695.497	810.387
695.625	802.613
695.753	795.336
695.881	790.076
696.010	789.714
696.138	788.908
696.266	788.555
696.394	783.244
696.522	773.983
696.650	773.983
696.778	774.403
696.906	773.966
697.035	768.042
697.163	766.706
697.291	756.437
697.419	765.655
697.547	750.218
697.675	759.042
697.803	761.134
697.931	751.227
698.060	746.924
698.188	743.765
698.316	743.378
698.444	732.622
698.572	736.891
698.700	737.790
698.828	728.916
698.956	720.034
699.085	715.941
699.213	717.739
699.341	713.857
699.469	722.723
699.597	719.017
699.725	718.345
699.853	706.311
699.981	708.361
700.110	700.244
700.238	708.176
700.366	695.101
700.494	696.672
700.622	698.613
700.750	694.076
700.878	692.345
701.006	682.588
701.135	682.361
701.263	684.723
701.391	675.109
701.519	679.529
701.647	674.538
701.775	677.109
701.903	673.882
702.031	669.647
702.160	665.689
702.288	663.555
702.416	658.891
702.544	656.714
702.672	655.857
702.800	645.866
702.928	650.429
703.056	656.487
703.185	646.605
703.313	655.059
703.441	641.042
703.569	638.571
703.697	640.790
703.825	636.496
703.953	642.563
704.081	634.916
704.210	631.000
704.338	636.277
704.466	624.034
704.594	620.647
704.722	622.706
704.850	620.445
704.978	616.647
705.106	619.420
705.235	612.697
705.363	614.336
705.491	610.563
705.619	607.639
705.747	607.319
705.875	610.714
706.003	605.395
706.131	603.168
706.260	597.143
706.388	596.765
706.516	591.101
706.644	593.437
706.772	586.076
706.900	583.218
707.028	589.605
707.156	582.681
707.285	582.933
707.413	580.092
707.541	569.899
707.669	574.202
707.797	569.765
707.925	568.773
708.053	567.966
708.181	570.353
708.310	564.697
708.438	562.773
708.566	557.849
708.694	561.992
708.822	559.042
708.950	556.706
709.078	551.824
709.206	548.706
709.335	548.370
709.463	543.412
709.591	540.126
709.719	538.874
709.847	533.218
709.975	542.908
710.103	534.563
710.231	532.328
710.360	523.513
710.488	529.731
710.616	517.445
710.744	520.832
710.872	520.748
711.000	522.462
711.128	512.849
711.256	510.857
711.385	513.958
711.513	510.975
711.641	510.303
711.769	505.840
711.897	505.504
712.025	502.235
712.153	497.739
712.281	497.269
712.410	490.605
712.538	492.244
712.666	490.210
712.794	491.244
712.922	491.723
713.050	487.286
713.178	483.454
713.306	486.555
713.435	484.613
713.563	483.462
713.691	481.185
713.819	475.067
713.947	472.908
714.075	472.538
714.203	470.975
714.331	472.933
714.460	465.807
714.588	465.244
714.716	466.471
714.844	461.487
714.972	459.000
715.100	457.412
715.228	463.134
715.356	456.101
715.485	450.143
715.613	451.445
715.741	453.151
715.869	446.966
715.997	444.563
716.125	447.580
716.253	443.731
716.381	445.950
716.510	446.092
716.638	442.370
716.766	437.689
716.894	433.563
717.022	430.412
717.150	432.782
717.278	434.193
717.406	432.840
717.535	431.782
717.663	432.193
717.791	432.941
717.919	423.487
718.047	428.403
718.175	425.151
718.303	426.471
718.431	418.655
718.560	422.681
718.688	418.084
718.816	413.227
718.944	414.471
719.072	418.924
719.200	406.992
719.328	414.134
719.456	409.782
719.585	410.126
719.713	414.496
719.841	408.655
719.969	400.958
720.097	402.571
720.225	404.017
720.353	400.185
720.481	399.538
720.610	396.504
720.738	393.832
720.866	393.975
720.994	391.210
721.122	394.160
721.250	390.218
721.378	388.580
721.506	392.504
721.635	388.756
721.763	385.143
721.891	384.008
722.019	381.580
722.147	382.790
722.275	380.076
722.403	381.487
722.531	379.630
722.660	379.370
722.788	375.126
722.916	372.748
723.044	370.050
723.172	373.571
723.300	370.588
723.428	374.084
723.556	369.723
723.685	367.244
723.813	366.286
723.941	363.294
724.069	360.261
724.197	359.714
724.325	359.555
724.453	359.479
724.581	358.706
724.710	352.261
724.838	354.538
724.966	349.067
725.094	350.555
725.222	347.378
725.350	344.395
725.478	343.874
725.606	344.790
725.735	337.681
725.863	342.319
725.991	341.067
726.119	338.882
726.247	334.874
726.375	338.773
726.503	336.193
726.631	332.613
726.760	330.429
726.888	332.471
727.016	327.395
727.144	329.613
727.272	331.034
727.400	320.983
727.528	322.471
727.656	324.563
727.785	320.622
727.913	322.790
728.041	315.479
728.169	319.647
728.297	315.168
728.425	315.000
728.553	314.328
728.681	313.941
728.810	310.126
728.938	312.151
729.066	309.202
729.194	312.303
729.322	303.647
729.450	303.017
729.578	305.420
729.706	302.286
729.835	305.647
729.963	303.555
730.091	298.807
730.219	301.655
730.347	298.294
730.475	292.496
730.603	292.824
730.731	297.269
730.860	295.672
730.988	292.361
731.116	288.916
731.244	291.555
731.372	290.563
731.500	289.395
731.628	286.286
731.756	286.370
731.885	284.672
732.013	284.471
732.141	281.319
732.269	282.857
732.397	285.101
732.525	281.378
732.653	281.689
732.781	279.168
732.910	279.790
733.038	276.277
733.166	274.714
733.294	276.840
733.422	271.370
733.550	272.513
733.678	273.261
733.806	275.681
733.935	268.798
734.063	272.017
734.191	271.008
734.319	269.244
734.447	267.849
734.575	266.723
734.703	264.571
734.831	267.311
734.960	262.790
735.088	261.782
735.216	262.857
735.344	262.983
735.472	260.353
735.600	261.252
735.728	260.303
735.856	256.950
735.985	252.193
736.113	257.924
736.241	255.042
736.369	256.227
736.497	254.798
736.625	255.361
736.753	254.294
736.881	251.655
737.010	249.874
737.138	251.076
737.266	250.723
737.394	251.017
737.522	250.176
737.650	247.672
737.778	249.782
737.906	243.479
738.035	244.160
738.163	246.504
738.291	242.782
738.419	246.790
738.547	243.151
738.675	240.966
738.803	238.908
738.931	238.849
739.060	238.277
739.188	241.252
739.316	236.580
739.444	242.916
739.572	234.294
739.700	234.269
739.828	233.874
739.956	234.151
740.085	235.336
740.213	234.950
740.341	229.908
740.469	233.891
740.597	230.933
740.725	232.681
740.853	231.773
740.981	230.336
741.110	229.202
741.238	231.076
741.366	229.244
741.494	224.017
741.622	226.025
741.750	224.672
741.878	226.252
742.006	224.160
742.135	223.286
742.263	225.958
742.391	221.655
742.519	224.176
742.647	222.084
742.775	221.227
742.903	221.597
743.031	221.269
743.160	218.454
743.288	215.160
743.416	217.714
743.544	213.891
743.672	216.294
743.800	213.697
743.928	211.891
744.056	214.050
744.185	217.370
744.313	213.067
744.441	212.092
744.569	212.832
744.697	213.227
744.825	212.017
744.953	211.782
745.081	209.345
745.210	208.504
745.338	208.908
745.466	205.042
745.594	207.689
745.722	208.479
745.850	207.471
745.978	205.387
746.106	208.395
746.235	203.723
746.363	207.134
746.491	206.815
746.619	203.731
746.747	201.429
746.875	199.429
747.003	203.084
747.131	203.345
747.260	196.908
747.388	200.941
747.516	201.328
747.644	199.429
747.772	195.815
747.900	198.950
748.028	199.252
748.156	193.286
748.285	198.244
748.413	195.605
748.541	194.067
748.669	191.756
748.797	194.176
748.925	192.815
749.053	194.160
749.181	194.647
749.310	194.933
749.438	190.134
749.566	190.866
749.694	191.345
749.822	192.336
749.950	190.370
750.078	188.933
750.206	189.118
750.335	189.277
750.463	186.059
750.591	187.160
750.719	187.731
750.847	184.916
750.975	184.294
751.103	184.966
751.231	185.143
751.360	184.899
751.488	182.756
751.616	179.891
751.744	182.252
751.872	182.252
752.000	180.319
752.128	180.210
752.256	182.487
752.385	182.059
752.513	179.697
752.641	177.496
752.769	176.412
752.897	178.084
753.025	175.034
753.153	176.025
753.281	176.924
753.410	176.193
753.538	178.000
753.666	174.277
753.794	174.252
753.922	175.664
754.050	172.353
754.178	174.689
754.306	172.882
754.435	172.025
754.563	174.109
754.691	170.975
754.819	171.824
754.947	173.521
755.075	172.361
755.203	172.370
755.331	170.807
755.460	170.084
755.588	168.790
755.716	169.672
755.844	167.546
755.972	168.630
756.100	167.588
756.228	167.706
756.356	164.731
756.485	166.849
756.613	166.361
756.741	166.008
756.869	166.630
756.997	167.193
757.125	167.782
757.253	165.193
757.381	163.824
757.510	165.597
757.638	162.605
757.766	165.328
757.894	161.798
758.022	162.538
758.150	163.496
758.278	162.655
758.406	161.437
758.535	162.185
758.663	160.950
758.791	159.983
758.919	160.109
759.047	161.235
759.175	162.487
759.303	159.160
759.431	158.328
759.560	157.521
759.688	161.580
759.816	158.210
759.944	157.244
760.072	155.387
760.200	155.496
760.328	156.345
760.456	159.151
760.585	155.697
760.713	156.235
760.841	154.269
760.969	154.807
761.097	152.630
761.225	156.454
761.353	155.941
761.481	155.067
761.610	150.815
761.738	152.496
761.866	153.261
761.994	151.748
762.122	151.950
762.250	152.655
762.378	150.445
762.506	150.924
762.635	150.504
762.763	151.571
762.891	151.210
763.019	150.655
763.147	149.924
763.275	151.773
763.403	146.504
763.531	147.487
763.660	147.042
763.788	149.092
763.916	148.328
764.044	146.185
764.172	148.118
764.300	145.261
764.428	147.622
764.556	147.849
764.685	146.782
764.813	143.513
764.941	145.983
765.069	144.891
765.197	146.748
765.325	143.454
765.453	144.462
765.581	146.412
765.710	143.563
765.838	143.672
765.966	145.252
766.094	143.950
766.222	142.782
766.350	141.950
766.478	141.950
766.606	140.731
766.735	140.118
766.863	139.992
766.991	139.571
767.119	141.109
767.247	140.143
767.375	139.731
767.503	141.697
767.631	140.815
767.760	140.336
767.888	139.538
768.016	137.824
768.144	136.933
768.272	140.067
768.400	140.311
768.528	138.521
768.656	137.235
768.785	138.563
768.913	136.773
769.041	138.210
769.169	135.773
769.297	137.059
769.425	135.756
769.553	136.874
769.681	137.555
769.810	137.437
769.938	136.958
770.066	135.765
770.194	135.571
770.322	136.916
770.450	136.899
770.578	134.571
770.706	134.328
770.835	133.832
770.963	135.529
771.091	134.857
771.219	136.538
771.347	137.756
771.475	134.109
771.603	133.050
771.731	133.807
771.860	134.958
771.988	132.151
772.116	132.496
772.244	132.597
772.372	133.387
772.500	132.958
772.628	132.815
772.756	131.235
772.885	132.378
773.013	132.487
773.141	130.151
773.269	130.286
773.397	131.563
773.525	131.050
773.653	131.723
773.781	130.429
773.910	128.681
774.038	129.966
774.166	129.571
774.294	129.739
774.422	127.655
774.550	130.924
774.678	129.756
774.806	128.655
774.935	129.118
775.063	127.672
775.191	128.958
775.319	129.992
775.447	128.227
775.575	128.025
775.703	130.168
775.831	128.933
775.960	125.857
776.088	127.529
776.216	127.025
776.344	127.555
776.472	127.588
776.600	126.168
776.728	125.395
776.856	125.588
776.985	126.403
777.113	125.571
777.241	126.462
777.369	124.714
777.497	125.294
777.625	126.529
777.753	124.538
777.881	126.513
778.010	125.748
778.138	125.773
778.266	122.908
778.394	124.992
778.522	126.336
778.650	123.731
778.778	123.370
778.906	123.025
779.035	125.244
779.163	123.361
779.291	122.983
779.419	123.958
779.547	123.597
779.675	124.790
779.803	123.739
779.931	121.067
780.060	123.286
780.188	122.303
780.316	121.252
780.444	123.605
780.572	121.311
780.700	123.807
780.828	120.857
780.956	123.193
781.085	121.387
781.213	121.697
781.341	123.076
781.469	122.672
781.597	124.008
781.725	120.958
781.853	121.353
781.981	120.882
782.110	121.815
782.238	121.185
782.366	119.924
782.494	119.353
782.622	119.580
782.750	121.176
782.878	119.597
783.006	121.328
783.135	119.874
783.263	118.126
783.391	120.361
783.519	119.378
783.647	119.378
783.775	119.689
783.903	119.218
784.031	119.563
784.160	118.773
784.288	119.294
784.416	118.227
784.544	116.933
784.672	117.000
784.800	117.244
784.928	116.479
785.056	117.672
785.185	117.798
785.313	116.639
785.441	117.723
785.569	118.538
785.697	117.966
785.825	117.496
785.953	115.807
786.081	118.731
786.210	117.118
786.338	116.210
786.466	116.059
786.594	116.857
786.722	116.580
786.850	116.000
786.978	116.059
787.106	116.000
787.235	115.303
787.363	118.168
787.491	117.101
787.619	116.664
787.747	115.723
787.875	115.782
788.003	116.286
788.131	115.017
788.260	115.168
788.388	116.387
788.516	114.126
788.644	114.261
788.772	115.261
788.900	114.941
789.028	113.824
789.156	114.899
789.285	114.454
789.413	113.521
789.541	114.588
789.669	112.748
789.797	114.571
789.925	114.672
790.053	115.597
790.181	114.916
790.310	114.639
790.438	113.849
790.566	114.908
790.694	114.395
790.822	112.832
790.950	114.345
791.078	112.714
791.206	112.437
791.335	113.252
791.463	113.605
791.591	113.269
791.719	114.403
791.847	112.042
791.975	112.748
792.103	112.538
792.231	113.790
792.360	113.261
792.488	112.294
792.616	112.454
792.744	112.118
792.872	111.992
793.000	113.168
793.128	112.437
793.256	112.924
793.385	112.697
793.513	113.050
793.641	112.807
793.769	111.571
793.897	111.874
794.025	112.387
794.153	112.840
794.281	112.882
794.410	111.168
794.538	112.622
794.666	111.765
794.794	110.874
794.922	111.950
795.050	111.681
795.178	112.529
795.306	109.706
795.435	110.000
795.563	110.706
795.691	110.294
795.819	110.420
795.947	110.866
796.075	112.143
796.203	112.109
796.331	110.126
796.460	110.336
796.588	110.513
796.716	111.815
796.844	111.639
796.972	112.134
797.100	110.277
797.228	112.378
797.356	112.597
797.485	110.134
797.613	110.521
797.741	110.471
797.869	110.992
797.997	110.286
798.125	110.403
798.253	109.714
798.381	110.429
798.510	109.992
798.638	109.908
798.766	109.798
798.894	108.992
799.022	109.202
799.150	109.597
799.278	109.975
799.406	111.471
799.535	110.151
799.663	110.286
799.791	107.555
799.919	108.563
800.047	110.151
800.175	110.092
800.303	109.445
800.431	109.496
800.560	109.588
800.688	109.151
800.816	108.941
800.944	108.882
801.072	110.445
801.200	110.294
801.328	109.193
801.456	110.151
801.585	109.496
801.713	108.840
801.841	110.143
801.969	109.874
802.097	110.034
802.225	109.840
802.353	109.395
802.481	109.487
802.610	108.815
802.738	109.487
802.866	110.403
802.994	108.496
803.122	108.950
803.250	110.597
803.378	108.546
803.506	108.714
803.635	109.622
803.763	108.420
803.891	109.252
804.019	109.462
804.147	108.882
804.275	107.933
804.403	109.050
804.531	108.588
804.660	107.958
804.788	108.227
804.916	107.933
805.044	107.261
805.172	108.395
805.300	107.622
805.428	108.504
805.556	107.445
805.685	109.008
805.813	109.269
805.941	107.353
806.069	107.992
806.197	108.487
806.325	107.504
806.453	108.933
806.581	107.647
806.710	106.891
806.838	107.008
806.966	108.294
807.094	107.454
807.222	107.403
807.350	107.941
807.478	107.420
807.606	107.151
807.735	107.580
807.863	107.605
807.991	107.345
808.119	107.168
808.247	107.513
808.375	107.336
808.503	106.076
808.631	108.286
808.760	107.025
808.888	105.412
809.016	107.790
809.144	108.193
809.272	107.731
809.400	107.353
809.528	107.824
809.656	107.143
809.785	106.605
809.913	106.874
810.041	106.908
810.169	107.000
810.297	107.387
810.425	107.580
810.553	106.252
810.681	107.639
810.810	107.202
810.938	107.445
811.066	104.874
811.194	106.588
811.322	106.597
811.450	106.126
811.578	107.941
811.706	107.345
811.835	107.471
811.963	106.252
812.091	107.269
812.219	107.303
812.347	106.672
812.475	106.773
812.603	107.235
812.731	105.546
812.860	107.269
812.988	107.328
813.116	106.445
813.244	107.580
813.372	106.655
813.500	106.487
813.628	107.714
813.756	105.176
813.885	106.899
814.013	106.933
814.141	108.403
814.269	107.319
814.397	106.513
814.525	106.143
814.653	107.445
814.781	106.185
814.910	106.395
815.038	107.294
815.166	106.706
815.294	106.647
815.422	107.261
815.550	106.303
815.678	105.647
815.806	106.336
815.935	105.202
816.063	106.059
816.191	105.966
816.319	106.756
816.447	107.050
816.575	106.840
816.703	107.244
816.831	106.655
816.960	106.824
817.088	105.462
817.216	105.370
817.344	106.185
817.472	107.076
817.600	105.252
817.728	105.916
817.856	106.605
817.985	105.353
818.113	105.857
818.241	105.387
818.369	104.420
818.497	106.765
818.625	105.118
818.753	104.857
818.881	106.269
819.010	105.336
819.138	105.109
819.266	105.101
819.394	105.286
819.522	104.597
819.650	107.017
819.778	105.118
819.906	105.126
820.035	105.580
820.163	105.891
820.291	105.471
820.419	104.899
820.547	106.000
820.675	104.403
820.803	106.126
820.931	105.630
821.060	104.412
821.188	105.126
821.316	105.597
821.444	105.395
821.572	104.840
821.700	105.866
821.828	105.815
821.956	105.849
822.085	105.193
822.213	106.092
822.341	105.832
822.469	104.311
822.597	104.874
822.725	104.126
822.853	105.193
822.981	104.723
823.110	105.992
823.238	103.924
823.366	105.924
823.494	103.521
823.622	104.244
823.750	105.555
823.878	103.655
824.006	105.454
824.135	105.437
824.263	106.008
824.391	104.664
824.519	105.857
824.647	105.429
824.775	105.815
824.903	105.580
825.031	106.143
825.160	105.513
825.288	104.622
825.416	105.336
825.544	105.353
825.672	105.815
825.800	105.580
825.928	105.588
826.056	104.689
826.185	104.723
826.313	105.412
826.441	104.765
826.569	104.773
826.697	105.151
826.825	104.958
826.953	105.496
827.081	104.008
827.210	104.361
827.338	103.706
827.466	104.521
827.594	105.017
827.722	105.748
827.850	104.773
827.978	104.345
828.106	104.992
828.235	105.462
828.363	105.034
828.491	105.244
828.619	103.832
828.747	105.134
828.875	104.857
829.003	105.513
829.131	105.647
829.260	105.874
829.388	104.521
829.516	105.487
829.644	105.294
829.772	105.529
829.900	104.605
830.028	104.933
830.156	103.950
830.285	104.521
830.413	104.622
830.541	105.429
830.669	104.143
830.797	103.681
830.925	104.765
831.053	104.118
831.181	104.613
831.310	104.765
831.438	105.067
831.566	104.176
831.694	104.101
831.822	103.958
831.950	104.328
832.078	104.160
832.206	104.403
832.335	104.252
832.463	105.000
832.591	104.630
832.719	104.193
832.847	104.134
832.975	103.613
833.103	105.042
833.231	104.580
833.360	104.782
833.488	104.193
833.616	104.235
833.744	103.630
833.872	104.555
834.000	104.504
834.128	104.958
834.256	104.924
834.385	103.706
834.513	105.008
834.641	102.193
834.769	103.832
834.897	104.908
835.025	103.454
835.153	103.277
835.281	104.244
835.410	104.361
835.538	104.269
835.666	104.261
835.794	103.773
835.922	104.555
836.050	103.916
836.178	104.504
836.306	103.857
836.435	104.017
836.563	103.874
836.691	105.185
836.819	105.445
836.947	103.328
837.075	103.975
837.203	103.857
837.331	104.429
837.460	104.395
837.588	104.185
837.716	104.210
837.844	104.277
837.972	103.714
838.100	104.311
838.228	104.017
838.356	103.269
838.485	101.849
838.613	103.647
838.741	104.370
838.869	103.218
838.997	104.622
839.125	103.076
839.253	102.756
839.381	104.403
839.510	103.445
839.638	103.328
839.766	102.924
839.894	103.345
840.022	104.269
840.150	104.824
840.278	103.370
840.406	103.756
840.535	104.714
840.663	103.303
840.791	102.815
840.919	103.076
841.047	102.992
841.175	103.042
841.303	103.487
841.431	104.429
841.560	103.563
841.688	104.261
841.816	103.025
841.944	103.529
842.072	103.462
842.200	103.849
842.328	104.101
842.456	103.563
842.585	104.529
842.713	103.706
842.841	103.202
842.969	104.176
843.097	103.958
843.225	103.336
843.353	104.160
843.481	102.966
843.610	103.664
843.738	103.580
843.866	103.546
