70-90-0_at_679.99nm_cut_at_1283.50Y_01.dat
24.01.2024
11:28:54
cut middle at Y: 1283.50
top cursor: 1343 down cursor: 1224 mean of: 119 lines , 2560 datapoints
wavelength(nm)	intensity[arb. units]
515.994	389.017
516.122	371.471
516.250	368.697
516.378	365.513
516.506	363.546
516.635	364.126
516.763	369.462
516.891	369.160
517.019	371.571
517.147	370.504
517.275	370.118
517.403	371.613
517.531	373.126
517.660	368.437
517.788	369.723
517.916	375.471
518.044	372.832
518.172	376.622
518.300	373.454
518.428	375.807
518.556	373.647
518.685	373.294
518.813	375.857
518.941	376.681
519.069	374.916
519.197	375.244
519.325	382.387
519.453	377.042
519.581	383.798
519.710	383.706
519.838	383.168
519.966	384.076
520.094	381.336
520.222	385.697
520.350	391.866
520.478	390.034
520.606	390.504
520.735	388.294
520.863	388.008
520.991	395.992
521.119	396.798
521.247	393.756
521.375	392.042
521.503	397.966
521.631	397.235
521.760	398.622
521.888	398.269
522.016	404.555
522.144	398.782
522.272	401.504
522.400	407.563
522.528	399.739
522.656	406.613
522.785	411.538
522.913	404.479
523.041	403.319
523.169	407.361
523.297	409.798
523.425	407.647
523.553	406.462
523.681	409.395
523.810	410.462
523.938	414.370
524.066	413.403
524.194	416.437
524.322	414.319
524.450	408.807
524.578	413.639
524.706	419.966
524.835	412.101
524.963	417.454
525.091	412.210
525.219	417.235
525.347	415.471
525.475	415.681
525.603	420.874
525.731	411.908
525.860	417.294
525.988	410.008
526.116	413.185
526.244	414.412
526.372	413.613
526.500	419.168
526.628	418.966
526.756	417.311
526.885	416.101
527.013	416.924
527.141	419.218
527.269	418.050
527.397	415.655
527.525	418.807
527.653	418.345
527.781	419.118
527.910	416.529
528.038	424.345
528.166	422.042
528.294	420.513
528.422	420.244
528.550	422.647
528.678	425.345
528.806	427.193
528.935	426.723
529.063	426.966
529.191	426.857
529.319	428.798
529.447	431.504
529.575	433.193
529.703	430.067
529.831	432.126
529.960	430.916
530.088	430.437
530.216	435.319
530.344	429.336
530.472	430.261
530.600	434.479
530.728	433.000
530.856	436.765
530.985	433.765
531.113	429.571
531.241	438.773
531.369	436.202
531.497	432.731
531.625	438.908
531.753	433.244
531.881	440.387
532.010	437.992
532.138	433.336
532.266	430.630
532.394	435.958
532.522	436.555
532.650	438.639
532.778	434.983
532.906	433.916
533.035	439.655
533.163	436.126
533.291	437.529
533.419	429.345
533.547	433.235
533.675	435.336
533.803	431.689
533.931	434.244
534.060	433.874
534.188	438.941
534.316	432.597
534.444	434.924
534.572	436.420
534.700	439.328
534.828	438.471
534.956	442.798
535.085	438.899
535.213	434.840
535.341	442.193
535.469	438.244
535.597	442.857
535.725	443.269
535.853	445.311
535.981	444.630
536.110	445.992
536.238	448.706
536.366	453.378
536.494	444.899
536.622	454.059
536.750	449.975
536.878	455.471
537.006	460.252
537.135	451.286
537.263	457.908
537.391	459.202
537.519	455.521
537.647	459.218
537.775	459.529
537.903	461.672
538.031	461.882
538.160	461.739
538.288	462.824
538.416	462.109
538.544	465.622
538.672	466.782
538.800	467.429
538.928	469.235
539.056	471.294
539.185	468.000
539.313	469.588
539.441	472.227
539.569	471.168
539.697	472.798
539.825	472.076
539.953	473.118
540.081	470.227
540.210	475.176
540.338	469.580
540.466	476.882
540.594	469.975
540.722	473.504
540.850	473.370
540.978	474.874
541.106	472.622
541.235	477.874
541.363	477.924
541.491	472.067
541.619	473.630
541.747	479.714
541.875	476.202
542.003	479.555
542.131	477.076
542.260	483.218
542.388	480.899
542.516	480.084
542.644	482.059
542.772	479.277
542.900	479.269
543.028	483.580
543.156	486.773
543.285	480.882
543.413	482.370
543.541	486.303
543.669	482.765
543.797	479.916
543.925	486.034
544.053	488.269
544.181	487.697
544.310	483.882
544.438	482.160
544.566	478.639
544.694	487.571
544.822	485.605
544.950	487.092
545.078	482.689
545.206	484.487
545.335	484.555
545.463	486.672
545.591	486.824
545.719	490.118
545.847	487.151
545.975	490.546
546.103	484.420
546.231	488.874
546.360	485.353
546.488	488.303
546.616	485.361
546.744	492.176
546.872	486.899
547.000	488.899
547.128	488.824
547.256	489.319
547.385	486.571
547.513	484.950
547.641	487.361
547.769	497.042
547.897	489.723
548.025	486.983
548.153	488.723
548.281	489.261
548.410	487.882
548.538	492.403
548.666	486.244
548.794	490.916
548.922	486.672
549.050	493.286
549.178	485.706
549.306	492.899
549.435	498.412
549.563	491.328
549.691	486.664
549.819	493.454
549.947	494.319
550.075	491.941
550.203	498.261
550.331	492.647
550.460	493.664
550.588	491.739
550.716	498.000
550.844	495.092
550.972	488.613
551.100	497.218
551.228	494.134
551.356	501.042
551.485	496.496
551.613	493.092
551.741	492.689
551.869	494.185
551.997	490.118
552.125	488.050
552.253	491.378
552.381	489.235
552.510	492.059
552.638	491.782
552.766	496.429
552.894	484.992
553.022	491.202
553.150	489.202
553.278	484.202
553.406	485.109
553.535	484.109
553.663	487.765
553.791	485.143
553.919	488.319
554.047	489.849
554.175	488.563
554.303	485.521
554.431	488.025
554.560	487.294
554.688	492.723
554.816	492.311
554.944	490.017
555.072	491.092
555.200	487.395
555.328	485.891
555.456	490.168
555.585	490.160
555.713	486.571
555.841	486.336
555.969	484.992
556.097	496.160
556.225	486.571
556.353	486.529
556.481	492.235
556.610	493.924
556.738	499.857
556.866	495.353
556.994	487.807
557.122	492.067
557.250	492.109
557.378	494.235
557.506	494.412
557.635	488.529
557.763	492.017
557.891	496.387
558.019	493.395
558.147	491.908
558.275	500.034
558.403	499.807
558.531	497.151
558.660	490.647
558.788	493.924
558.916	496.588
559.044	490.345
559.172	496.504
559.300	505.958
559.428	491.261
559.556	499.866
559.685	501.622
559.813	495.504
559.941	501.445
560.069	506.303
560.197	494.983
560.325	501.445
560.453	496.311
560.581	503.807
560.710	495.067
560.838	491.580
560.966	493.160
561.094	507.160
561.222	494.479
561.350	499.622
561.478	492.748
561.606	497.950
561.735	496.588
561.863	497.731
561.991	496.000
562.119	496.235
562.247	497.336
562.375	496.697
562.503	494.941
562.631	497.017
562.760	494.672
562.888	496.647
563.016	498.840
563.144	498.101
563.272	498.655
563.400	491.269
563.528	491.782
563.656	502.034
563.785	501.252
563.913	498.588
564.041	490.630
564.169	496.756
564.297	498.655
564.425	496.109
564.553	505.597
564.681	504.521
564.810	497.134
564.938	498.176
565.066	502.613
565.194	499.076
565.322	501.672
565.450	506.689
565.578	503.454
565.706	506.815
565.835	502.513
565.963	502.185
566.091	508.252
566.219	504.345
566.347	510.420
566.475	508.487
566.603	512.261
566.731	510.235
566.860	509.429
566.988	508.580
567.116	516.034
567.244	516.168
567.372	518.555
567.500	519.992
567.628	517.950
567.756	520.731
567.885	517.261
568.013	523.286
568.141	524.092
568.269	518.697
568.397	521.689
568.525	521.101
568.653	530.697
568.781	524.176
568.910	535.597
569.038	525.975
569.166	524.807
569.294	526.605
569.422	528.311
569.550	527.487
569.678	532.017
569.806	534.017
569.935	530.891
570.063	531.790
570.191	535.160
570.319	537.571
570.447	534.370
570.575	534.345
570.703	536.706
570.831	544.916
570.960	543.555
571.088	542.874
571.216	537.983
571.344	542.529
571.472	541.025
571.600	543.529
571.728	545.513
571.856	538.563
571.985	539.824
572.113	544.882
572.241	543.546
572.369	547.151
572.497	545.908
572.625	552.941
572.753	555.059
572.881	552.924
573.010	552.361
573.138	552.454
573.266	557.134
573.394	557.941
573.522	553.403
573.650	559.370
573.778	554.202
573.906	553.076
574.035	555.782
574.163	553.487
574.291	557.807
574.419	555.605
574.547	559.765
574.675	561.319
574.803	563.487
574.931	558.370
575.060	563.529
575.188	560.395
575.316	559.681
575.444	564.126
575.572	563.059
575.700	554.286
575.828	569.824
575.956	569.597
576.085	562.034
576.213	574.235
576.341	565.118
576.469	571.328
576.597	562.924
576.725	565.538
576.853	559.714
576.981	563.824
577.110	566.445
577.238	576.672
577.366	563.479
577.494	567.630
577.622	564.916
577.750	567.311
577.878	571.319
578.006	570.311
578.135	576.538
578.263	569.782
578.391	578.815
578.519	573.294
578.647	580.782
578.775	573.017
578.903	571.832
579.031	575.983
579.160	576.387
579.288	573.924
579.416	574.840
579.544	574.908
579.672	575.857
579.800	577.076
579.928	573.437
580.056	580.345
580.185	576.950
580.313	580.739
580.441	582.395
580.569	578.714
580.697	582.899
580.825	588.529
580.953	585.706
581.081	586.538
581.210	595.739
581.338	594.084
581.466	595.059
581.594	598.664
581.722	594.655
581.850	590.580
581.978	598.210
582.106	601.092
582.235	606.748
582.363	597.176
582.491	609.193
582.619	600.882
582.747	606.975
582.875	608.311
583.003	615.420
583.131	611.210
583.260	610.824
583.388	617.235
583.516	620.134
583.644	619.235
583.772	622.034
583.900	625.521
584.028	629.328
584.156	627.429
584.285	632.588
584.413	626.739
584.541	635.546
584.669	635.773
584.797	628.471
584.925	633.605
585.053	641.311
585.181	646.538
585.310	644.824
585.438	638.210
585.566	645.513
585.694	654.714
585.822	652.462
585.950	659.597
586.078	656.731
586.206	657.050
586.335	664.849
586.463	663.067
586.591	663.168
586.719	661.874
586.847	659.765
586.975	659.084
587.103	667.857
587.231	668.983
587.360	667.857
587.488	672.891
587.616	681.496
587.744	679.588
587.872	676.000
588.000	679.008
588.128	686.899
588.256	680.420
588.385	678.739
588.513	685.109
588.641	689.689
588.769	688.882
588.897	687.849
589.025	686.067
589.153	689.613
589.281	683.689
589.410	690.487
589.538	686.790
589.666	696.218
589.794	687.798
589.922	700.370
590.050	700.328
590.178	688.950
590.306	699.067
590.435	697.025
590.563	691.916
590.691	696.874
590.819	698.513
590.947	711.832
591.075	698.798
591.203	695.353
591.331	711.555
591.460	710.639
591.588	704.244
591.716	710.882
591.844	712.252
591.972	717.756
592.100	706.689
592.228	718.008
592.356	710.118
592.485	707.941
592.613	710.773
592.741	719.622
592.869	715.504
592.997	719.034
593.125	727.975
593.253	728.992
593.381	722.008
593.510	730.210
593.638	725.538
593.766	728.303
593.894	728.639
594.022	733.319
594.150	736.059
594.278	735.672
594.406	736.462
594.535	736.059
594.663	739.529
594.791	739.605
594.919	742.639
595.047	745.866
595.175	751.479
595.303	746.361
595.431	749.202
595.560	761.613
595.688	758.050
595.816	755.361
595.944	764.571
596.072	762.966
596.200	766.109
596.328	766.193
596.456	765.101
596.585	769.950
596.713	776.899
596.841	776.017
596.969	781.916
597.097	780.319
597.225	777.866
597.353	775.042
597.481	784.454
597.610	787.269
597.738	779.815
597.866	784.622
597.994	782.605
598.122	802.664
598.250	790.563
598.378	795.160
598.506	792.101
598.635	794.765
598.763	805.622
598.891	800.437
599.019	808.655
599.147	803.185
599.275	812.832
599.403	806.471
599.531	811.689
599.660	813.437
599.788	825.950
599.916	810.210
600.044	817.084
600.172	817.630
600.300	826.143
600.428	812.445
600.556	827.328
600.685	831.143
600.813	825.857
600.941	838.790
601.069	840.227
601.197	842.303
601.325	834.328
601.453	844.269
601.581	853.538
601.710	851.387
601.838	852.437
601.966	858.790
602.094	851.866
602.222	863.773
602.350	860.042
602.478	869.496
602.606	874.765
602.735	863.866
602.863	874.899
602.991	882.849
603.119	884.361
603.247	884.227
603.375	886.345
603.503	884.874
603.631	900.395
603.760	895.479
603.888	889.328
604.016	898.739
604.144	912.218
604.272	908.672
604.400	908.202
604.528	909.588
604.656	914.134
604.785	917.613
604.913	924.933
605.041	928.269
605.169	924.294
605.297	917.227
605.425	930.311
605.553	934.345
605.681	920.597
605.810	930.563
605.938	935.479
606.066	939.555
606.194	941.647
606.322	940.958
606.450	952.345
606.578	957.227
606.706	949.697
606.835	960.664
606.963	953.151
607.091	965.076
607.219	956.824
607.347	966.160
607.475	979.235
607.603	975.042
607.731	975.345
607.860	967.067
607.988	966.429
608.116	964.899
608.244	969.437
608.372	981.395
608.500	989.975
608.628	978.084
608.756	986.303
608.885	986.815
609.013	979.445
609.141	983.319
609.269	986.815
609.397	983.765
609.525	987.303
609.653	989.084
609.781	997.126
609.910	989.420
610.038	994.261
610.166	988.588
610.294	994.815
610.422	998.697
610.550	995.059
610.678	1007.429
610.806	1006.076
610.935	1009.723
611.063	1009.924
611.191	1007.731
611.319	1018.319
611.447	1012.101
611.575	1018.067
611.703	1007.689
611.831	1022.723
611.960	1021.630
612.088	1028.891
612.216	1030.824
612.344	1033.034
612.472	1026.790
612.600	1032.697
612.728	1027.412
612.856	1034.605
612.985	1033.437
613.113	1033.151
613.241	1037.983
613.369	1044.143
613.497	1046.933
613.625	1042.529
613.753	1050.630
613.881	1036.244
614.010	1053.118
614.138	1046.269
614.266	1041.983
614.394	1049.739
614.522	1053.370
614.650	1067.756
614.778	1056.076
614.906	1070.437
615.035	1058.076
615.163	1063.471
615.291	1069.269
615.419	1061.731
615.547	1065.252
615.675	1071.420
615.803	1075.689
615.931	1086.336
616.060	1087.252
616.188	1086.513
616.316	1080.731
616.444	1086.874
616.572	1089.471
616.700	1090.924
616.828	1104.538
616.956	1105.723
617.085	1107.731
617.213	1103.168
617.341	1108.378
617.469	1110.731
617.597	1117.008
617.725	1129.210
617.853	1115.277
617.981	1122.983
618.110	1129.866
618.238	1134.975
618.366	1142.513
618.494	1145.000
618.622	1151.546
618.750	1146.361
618.878	1141.504
619.006	1146.840
619.135	1156.210
619.263	1152.916
619.391	1170.378
619.519	1157.672
619.647	1180.571
619.775	1176.605
619.903	1187.672
620.031	1182.143
620.160	1178.454
620.288	1185.420
620.416	1199.345
620.544	1200.311
620.672	1208.958
620.800	1204.412
620.928	1213.395
621.056	1213.941
621.185	1207.353
621.313	1215.067
621.441	1225.588
621.569	1236.210
621.697	1228.790
621.825	1246.588
621.953	1238.588
622.081	1251.521
622.210	1244.496
622.338	1257.176
622.466	1250.731
622.594	1261.992
622.722	1274.025
622.850	1273.336
622.978	1273.042
623.106	1269.412
623.235	1289.345
623.363	1279.118
623.491	1284.916
623.619	1281.008
623.747	1280.294
623.875	1293.143
624.003	1295.101
624.131	1290.958
624.260	1291.059
624.388	1300.311
624.516	1311.924
624.644	1304.655
624.772	1310.311
624.900	1316.513
625.028	1306.513
625.156	1336.437
625.285	1311.748
625.413	1317.151
625.541	1319.319
625.669	1329.092
625.797	1327.647
625.925	1331.042
626.053	1334.303
626.181	1345.361
626.310	1345.546
626.438	1336.017
626.566	1333.134
626.694	1347.050
626.822	1348.017
626.950	1355.555
627.078	1348.950
627.206	1345.866
627.335	1367.504
627.463	1363.319
627.591	1370.655
627.719	1370.496
627.847	1379.412
627.975	1378.210
628.103	1372.782
628.231	1385.437
628.360	1372.748
628.488	1386.513
628.616	1397.924
628.744	1390.765
628.872	1396.765
629.000	1396.008
629.128	1401.151
629.256	1411.605
629.385	1397.269
629.513	1396.261
629.641	1411.966
629.769	1404.546
629.897	1405.756
630.025	1412.706
630.153	1432.126
630.281	1429.697
630.410	1415.193
630.538	1437.328
630.666	1433.672
630.794	1434.151
630.922	1420.210
631.050	1429.252
631.178	1444.790
631.306	1437.891
631.435	1445.210
631.563	1436.101
631.691	1432.538
631.819	1448.168
631.947	1457.008
632.075	1452.328
632.203	1457.681
632.331	1462.277
632.460	1447.630
632.588	1463.235
632.716	1473.706
632.844	1448.134
632.972	1486.824
633.100	1477.353
633.228	1478.084
633.356	1472.899
633.485	1477.571
633.613	1493.513
633.741	1473.782
633.869	1485.210
633.997	1493.622
634.125	1488.555
634.253	1491.227
634.381	1491.353
634.510	1501.840
634.638	1478.739
634.766	1481.471
634.894	1496.706
635.022	1491.118
635.150	1502.345
635.278	1523.353
635.406	1507.034
635.535	1510.437
635.663	1511.429
635.791	1502.992
635.919	1533.210
636.047	1512.580
636.175	1498.824
636.303	1519.538
636.431	1525.202
636.560	1526.630
636.688	1537.210
636.816	1534.933
636.944	1524.706
637.072	1546.697
637.200	1530.218
637.328	1522.042
637.456	1545.210
637.585	1530.059
637.713	1548.504
637.841	1540.487
637.969	1534.286
638.097	1545.134
638.225	1554.950
638.353	1563.143
638.481	1551.622
638.610	1571.319
638.738	1561.798
638.866	1560.479
638.994	1561.311
639.122	1570.252
639.250	1584.059
639.378	1583.706
639.506	1567.983
639.635	1586.277
639.763	1564.605
639.891	1587.714
640.019	1584.697
640.147	1593.924
640.275	1584.857
640.403	1591.714
640.531	1592.370
640.660	1594.874
640.788	1602.403
640.916	1600.908
641.044	1615.387
641.172	1603.950
641.300	1622.983
641.428	1623.824
641.556	1631.101
641.685	1616.034
641.813	1620.832
641.941	1630.790
642.069	1633.555
642.197	1634.420
642.325	1619.034
642.453	1649.992
642.581	1650.866
642.710	1645.303
642.838	1657.681
642.966	1657.437
643.094	1655.244
643.222	1656.857
643.350	1664.017
643.478	1673.807
643.606	1672.176
643.735	1675.975
643.863	1659.983
643.991	1691.345
644.119	1668.109
644.247	1679.025
644.375	1684.924
644.503	1696.496
644.631	1694.303
644.760	1701.748
644.888	1700.067
645.016	1713.109
645.144	1712.437
645.272	1698.941
645.400	1704.529
645.528	1713.563
645.656	1707.950
645.785	1715.025
645.913	1722.202
646.041	1735.504
646.169	1711.126
646.297	1705.067
646.425	1729.076
646.553	1719.042
646.681	1733.143
646.810	1728.664
646.938	1730.067
647.066	1711.235
647.194	1730.504
647.322	1721.832
647.450	1724.992
647.578	1739.916
647.706	1734.874
647.835	1743.126
647.963	1724.966
648.091	1746.807
648.219	1729.681
648.347	1744.336
648.475	1745.588
648.603	1736.496
648.731	1744.387
648.860	1728.319
648.988	1740.504
649.116	1753.748
649.244	1731.588
649.372	1733.933
649.500	1739.008
649.628	1748.336
649.756	1737.361
649.885	1724.042
650.013	1734.118
650.141	1737.227
650.269	1717.303
650.397	1732.529
650.525	1731.025
650.653	1728.294
650.781	1716.143
650.910	1719.193
651.038	1716.941
651.166	1711.916
651.294	1717.706
651.422	1711.916
651.550	1702.664
651.678	1703.471
651.806	1707.084
651.935	1721.655
652.063	1694.782
652.191	1702.193
652.319	1705.504
652.447	1703.286
652.575	1694.042
652.703	1697.613
652.831	1696.000
652.960	1702.605
653.088	1694.277
653.216	1675.336
653.344	1683.697
653.472	1691.210
653.600	1693.504
653.728	1682.210
653.856	1694.193
653.985	1688.378
654.113	1693.000
654.241	1688.109
654.369	1693.899
654.497	1706.412
654.625	1678.244
654.753	1684.387
654.881	1676.681
655.010	1691.790
655.138	1678.067
655.266	1682.218
655.394	1667.840
655.522	1670.454
655.650	1672.387
655.778	1668.580
655.906	1678.824
656.035	1677.017
656.163	1676.462
656.291	1677.126
656.419	1677.437
656.547	1676.454
656.675	1662.202
656.803	1666.597
656.931	1659.387
657.060	1660.815
657.188	1667.235
657.316	1672.000
657.444	1674.437
657.572	1669.092
657.700	1667.235
657.828	1662.882
657.956	1669.613
658.085	1691.067
658.213	1649.000
658.341	1656.025
658.469	1659.966
658.597	1660.471
658.725	1669.882
658.853	1652.655
658.981	1655.773
659.110	1662.790
659.238	1659.210
659.366	1662.042
659.494	1648.975
659.622	1646.336
659.750	1662.403
659.878	1657.798
660.006	1659.202
660.135	1649.832
660.263	1656.387
660.391	1633.412
660.519	1656.017
660.647	1629.345
660.775	1650.983
660.903	1645.756
661.031	1638.807
661.160	1641.580
661.288	1645.840
661.416	1648.714
661.544	1635.311
661.672	1636.580
661.800	1641.437
661.928	1638.613
662.056	1620.908
662.185	1632.277
662.313	1626.084
662.441	1640.345
662.569	1634.487
662.697	1627.605
662.825	1635.555
662.953	1645.412
663.081	1626.580
663.210	1636.874
663.338	1644.992
663.466	1627.487
663.594	1615.269
663.722	1614.555
663.850	1617.605
663.978	1611.092
664.106	1624.588
664.235	1621.134
664.363	1641.092
664.491	1618.176
664.619	1615.832
664.747	1621.966
664.875	1608.916
665.003	1601.529
665.131	1632.067
665.260	1610.361
665.388	1601.916
665.516	1607.647
665.644	1604.529
665.772	1613.261
665.900	1605.370
666.028	1618.790
666.156	1607.908
666.285	1608.798
666.413	1616.958
666.541	1600.429
666.669	1607.328
666.797	1602.874
666.925	1610.521
667.053	1615.933
667.181	1583.563
667.310	1582.580
667.438	1580.815
667.566	1590.672
667.694	1592.126
667.822	1599.151
667.950	1580.008
668.078	1577.891
668.206	1580.824
668.335	1580.950
668.463	1580.126
668.591	1582.622
668.719	1574.563
668.847	1567.328
668.975	1571.479
669.103	1574.832
669.231	1581.664
669.360	1573.193
669.488	1572.454
669.616	1568.613
669.744	1570.849
669.872	1553.975
670.000	1580.286
670.128	1551.908
670.256	1561.580
670.385	1561.059
670.513	1569.630
670.641	1544.092
670.769	1548.782
670.897	1543.403
671.025	1542.933
671.153	1546.311
671.281	1555.647
671.410	1551.630
671.538	1540.613
671.666	1537.773
671.794	1551.950
671.922	1545.639
672.050	1522.076
672.178	1544.471
672.306	1522.437
672.435	1518.202
672.563	1530.336
672.691	1530.353
672.819	1528.429
672.947	1513.185
673.075	1500.176
673.203	1510.908
673.331	1510.361
673.460	1503.807
673.588	1500.983
673.716	1504.849
673.844	1493.420
673.972	1503.563
674.100	1486.496
674.228	1494.126
674.356	1485.739
674.485	1485.832
674.613	1470.941
674.741	1479.714
674.869	1480.891
674.997	1464.294
675.125	1465.445
675.253	1448.622
675.381	1450.210
675.510	1440.639
675.638	1443.479
675.766	1442.765
675.894	1449.664
676.022	1437.958
676.150	1437.605
676.278	1436.857
676.406	1437.109
676.535	1421.000
676.663	1429.689
676.791	1416.966
676.919	1414.807
677.047	1414.597
677.175	1401.092
677.303	1400.235
677.431	1392.580
677.560	1396.042
677.688	1392.824
677.816	1385.697
677.944	1373.655
678.072	1373.437
678.200	1380.496
678.328	1365.975
678.456	1364.151
678.585	1357.387
678.713	1370.168
678.841	1353.042
678.969	1354.983
679.097	1360.613
679.225	1351.101
679.353	1351.336
679.481	1327.697
679.610	1346.487
679.738	1338.000
679.866	1333.555
679.994	1330.529
680.122	1330.059
680.250	1318.605
680.378	1327.252
680.506	1305.319
680.635	1303.118
680.763	1302.891
680.891	1291.134
681.019	1301.109
681.147	1291.958
681.275	1288.908
681.403	1283.252
681.531	1297.739
681.660	1278.731
681.788	1274.210
681.916	1268.782
682.044	1278.916
682.172	1254.798
682.300	1258.605
682.428	1267.050
682.556	1261.277
682.685	1262.370
682.813	1258.689
682.941	1254.109
683.069	1237.437
683.197	1249.958
683.325	1235.168
683.453	1244.471
683.581	1231.445
683.710	1225.529
683.838	1232.235
683.966	1234.773
684.094	1240.504
684.222	1231.025
684.350	1214.866
684.478	1234.504
684.606	1224.134
684.735	1214.664
684.863	1212.269
684.991	1217.168
685.119	1211.235
685.247	1193.933
685.375	1189.782
685.503	1206.655
685.631	1207.597
685.760	1201.496
685.888	1192.714
686.016	1194.000
686.144	1190.008
686.272	1189.605
686.400	1195.975
686.528	1191.529
686.656	1183.294
686.785	1174.639
686.913	1186.924
687.041	1181.244
687.169	1178.050
687.297	1177.092
687.425	1152.529
687.553	1158.076
687.681	1163.294
687.810	1159.538
687.938	1150.706
688.066	1159.471
688.194	1160.420
688.322	1148.403
688.450	1148.210
688.578	1150.403
688.706	1159.210
688.835	1142.571
688.963	1148.639
689.091	1151.521
689.219	1130.235
689.347	1123.597
689.475	1133.546
689.603	1121.908
689.731	1140.303
689.860	1132.445
689.988	1134.975
690.116	1123.832
690.244	1119.529
690.372	1115.815
690.500	1120.017
690.628	1114.143
690.756	1111.319
690.885	1113.235
691.013	1102.655
691.141	1101.210
691.269	1105.571
691.397	1110.269
691.525	1101.336
691.653	1112.210
691.781	1104.605
691.910	1100.966
692.038	1088.235
692.166	1086.294
692.294	1094.748
692.422	1080.395
692.550	1088.429
692.678	1080.622
692.806	1072.681
692.935	1070.471
693.063	1062.303
693.191	1064.756
693.319	1064.092
693.447	1058.235
693.575	1062.303
693.703	1055.756
693.831	1059.882
693.960	1053.941
694.088	1054.303
694.216	1044.773
694.344	1038.798
694.472	1041.185
694.600	1039.840
694.728	1032.387
694.856	1037.076
694.985	1027.966
695.113	1019.790
695.241	1020.353
695.369	1020.950
695.497	1010.866
695.625	1021.714
695.753	1010.487
695.881	999.286
696.010	1004.546
696.138	1000.866
696.266	989.672
696.394	992.529
696.522	983.445
696.650	983.462
696.778	977.311
696.906	982.042
697.035	970.723
697.163	970.059
697.291	970.496
697.419	971.655
697.547	954.790
697.675	952.756
697.803	954.622
697.931	954.891
698.060	944.824
698.188	938.706
698.316	948.790
698.444	930.950
698.572	930.546
698.700	939.916
698.828	930.151
698.956	913.706
699.085	917.387
699.213	916.773
699.341	912.580
699.469	914.218
699.597	918.227
699.725	910.109
699.853	897.874
699.981	905.739
700.110	895.319
700.238	894.807
700.366	883.630
700.494	882.277
700.622	883.008
700.750	870.261
700.878	879.504
701.006	863.294
701.135	872.042
701.263	865.849
701.391	858.462
701.519	871.000
701.647	860.958
701.775	856.496
701.903	851.134
702.031	861.605
702.160	847.471
702.288	846.336
702.416	841.824
702.544	842.059
702.672	843.824
702.800	827.118
702.928	831.462
703.056	832.462
703.185	827.109
703.313	822.370
703.441	814.454
703.569	816.571
703.697	819.437
703.825	816.034
703.953	812.244
704.081	804.202
704.210	805.580
704.338	809.958
704.466	792.143
704.594	798.370
704.722	791.286
704.850	785.017
704.978	780.824
705.106	792.261
705.235	771.958
705.363	780.874
705.491	774.134
705.619	777.370
705.747	766.622
705.875	771.345
706.003	762.765
706.131	766.361
706.260	757.697
706.388	759.202
706.516	746.555
706.644	750.622
706.772	742.672
706.900	736.059
707.028	736.185
707.156	738.975
707.285	736.672
707.413	725.277
707.541	721.975
707.669	721.513
707.797	716.630
707.925	718.361
708.053	717.655
708.181	711.118
708.310	711.336
708.438	706.496
708.566	699.571
708.694	701.790
708.822	698.664
708.950	692.992
709.078	686.328
709.206	686.782
709.335	688.160
709.463	682.471
709.591	680.277
709.719	673.202
709.847	674.546
709.975	669.597
710.103	666.487
710.231	666.538
710.360	657.185
710.488	653.059
710.616	656.244
710.744	651.336
710.872	651.597
711.000	648.109
711.128	642.908
711.256	638.118
711.385	646.076
711.513	635.924
711.641	632.092
711.769	625.555
711.897	631.202
712.025	616.261
712.153	617.513
712.281	625.185
712.410	621.303
712.538	617.311
712.666	609.773
712.794	609.782
712.922	606.748
713.050	607.916
713.178	605.950
713.306	603.529
713.435	597.303
713.563	595.084
713.691	601.101
713.819	591.832
713.947	583.252
714.075	584.731
714.203	585.151
714.331	580.269
714.460	581.227
714.588	579.353
714.716	572.882
714.844	571.647
714.972	566.882
715.100	563.622
715.228	567.202
715.356	566.824
715.485	566.403
715.613	558.706
715.741	558.941
715.869	555.605
715.997	550.597
716.125	548.731
716.253	551.739
716.381	550.420
716.510	555.538
716.638	547.429
716.766	539.916
716.894	537.513
717.022	543.353
717.150	537.252
717.278	535.739
717.406	534.975
717.535	531.605
717.663	532.798
717.791	528.605
717.919	529.319
718.047	518.874
718.175	527.933
718.303	522.857
718.431	519.706
718.560	518.891
718.688	511.630
718.816	512.824
718.944	512.504
719.072	511.067
719.200	505.496
719.328	505.034
719.456	505.042
719.585	509.529
719.713	501.538
719.841	502.420
719.969	496.807
720.097	494.008
720.225	497.134
720.353	490.084
720.481	488.412
720.610	486.151
720.738	482.319
720.866	485.412
720.994	481.218
721.122	482.134
721.250	479.521
721.378	474.689
721.506	474.916
721.635	476.739
721.763	477.000
721.891	471.563
722.019	468.042
722.147	470.235
722.275	463.992
722.403	463.849
722.531	459.160
722.660	460.361
722.788	461.092
722.916	456.513
723.044	450.269
723.172	454.378
723.300	448.025
723.428	452.580
723.556	441.042
723.685	447.017
723.813	443.328
723.941	439.739
724.069	443.538
724.197	441.286
724.325	428.487
724.453	429.067
724.581	429.580
724.710	433.681
724.838	427.328
724.966	419.462
725.094	416.277
725.222	422.143
725.350	420.815
725.478	415.387
725.606	417.000
725.735	414.546
725.863	413.479
725.991	408.294
726.119	409.504
726.247	404.630
726.375	402.899
726.503	406.319
726.631	401.748
726.760	395.588
726.888	401.513
727.016	392.454
727.144	393.714
727.272	394.487
727.400	387.252
727.528	391.504
727.656	390.235
727.785	384.597
727.913	385.017
728.041	381.513
728.169	383.151
728.297	376.941
728.425	376.798
728.553	377.454
728.681	372.975
728.810	369.538
728.938	367.168
729.066	368.992
729.194	368.496
729.322	365.782
729.450	359.303
729.578	363.655
729.706	357.647
729.835	361.782
729.963	358.529
730.091	353.286
730.219	349.916
730.347	353.622
730.475	347.975
730.603	345.235
730.731	350.588
730.860	347.084
730.988	345.109
731.116	342.681
731.244	341.824
731.372	339.134
731.500	338.571
731.628	335.597
731.756	338.655
731.885	334.739
732.013	339.445
732.141	332.059
732.269	333.168
732.397	327.807
732.525	331.286
732.653	330.042
732.781	331.824
732.910	327.387
733.038	326.202
733.166	315.916
733.294	322.059
733.422	319.261
733.550	322.361
733.678	318.076
733.806	323.328
733.935	315.899
734.063	314.252
734.191	315.429
734.319	309.202
734.447	314.143
734.575	310.899
734.703	306.992
734.831	308.857
734.960	307.815
735.088	303.429
735.216	303.706
735.344	305.269
735.472	302.067
735.600	298.555
735.728	302.109
735.856	299.824
735.985	298.017
736.113	296.723
736.241	295.849
736.369	292.798
736.497	293.008
736.625	289.378
736.753	293.555
736.881	289.966
737.010	287.580
737.138	288.588
737.266	285.874
737.394	286.739
737.522	284.193
737.650	283.101
737.778	283.748
737.906	281.882
738.035	277.101
738.163	282.042
738.291	276.042
738.419	276.202
738.547	274.353
738.675	275.160
738.803	272.697
738.931	272.336
739.060	272.395
739.188	273.185
739.316	270.899
739.444	267.756
739.572	269.748
739.700	265.798
739.828	268.084
739.956	263.311
740.085	265.361
740.213	262.697
740.341	260.588
740.469	263.866
740.597	260.076
740.725	263.193
740.853	258.151
740.981	257.546
741.110	260.252
741.238	258.328
741.366	253.000
741.494	259.353
741.622	255.336
741.750	256.714
741.878	253.639
742.006	252.092
742.135	251.109
742.263	251.370
742.391	248.782
742.519	253.950
742.647	250.672
742.775	251.655
742.903	246.311
743.031	247.286
743.160	247.244
743.288	245.571
743.416	242.244
743.544	240.101
743.672	245.151
743.800	242.521
743.928	241.286
744.056	240.832
744.185	240.655
744.313	243.084
744.441	237.042
744.569	238.782
744.697	235.891
744.825	238.924
744.953	235.319
745.081	234.613
745.210	236.588
745.338	237.437
745.466	232.092
745.594	234.479
745.722	231.193
745.850	231.168
745.978	230.261
746.106	231.143
746.235	227.235
746.363	230.765
746.491	226.933
746.619	227.328
746.747	226.336
746.875	225.849
747.003	225.958
747.131	223.983
747.260	224.218
747.388	222.445
747.516	221.647
747.644	220.958
747.772	220.227
747.900	220.857
748.028	218.445
748.156	215.092
748.285	220.160
748.413	215.479
748.541	219.832
748.669	216.168
748.797	212.235
748.925	212.765
749.053	213.017
749.181	212.849
749.310	211.353
749.438	212.017
749.566	211.782
749.694	210.487
749.822	210.798
749.950	213.807
750.078	209.328
750.206	205.134
750.335	207.815
750.463	203.765
750.591	205.933
750.719	205.672
750.847	201.639
750.975	204.076
751.103	202.286
751.231	201.134
751.360	199.605
751.488	201.361
751.616	199.857
751.744	201.370
751.872	199.235
752.000	197.445
752.128	197.420
752.256	195.647
752.385	197.992
752.513	195.622
752.641	192.807
752.769	194.445
752.897	194.269
753.025	189.765
753.153	191.723
753.281	192.487
753.410	193.269
753.538	185.866
753.666	190.798
753.794	190.084
753.922	190.109
754.050	185.143
754.178	188.403
754.306	185.227
754.435	186.445
754.563	185.277
754.691	185.462
754.819	185.370
754.947	183.756
755.075	186.143
755.203	184.639
755.331	181.874
755.460	181.714
755.588	182.639
755.716	178.664
755.844	179.748
755.972	178.849
756.100	177.059
756.228	180.706
756.356	176.403
756.485	180.975
756.613	179.118
756.741	178.950
756.869	178.395
756.997	176.697
757.125	176.950
757.253	176.261
757.381	174.992
757.510	173.008
757.638	174.807
757.766	174.950
757.894	171.521
758.022	174.370
758.150	170.017
758.278	171.328
758.406	170.639
758.535	172.286
758.663	173.790
758.791	172.252
758.919	168.126
759.047	169.353
759.175	168.681
759.303	169.193
759.431	167.185
759.560	165.571
759.688	168.605
759.816	167.773
759.944	168.269
760.072	162.933
760.200	165.689
760.328	165.672
760.456	164.471
760.585	163.849
760.713	164.571
760.841	163.109
760.969	162.714
761.097	159.529
761.225	164.143
761.353	164.286
761.481	162.076
761.610	160.445
761.738	162.706
761.866	160.303
761.994	159.689
762.122	159.118
762.250	157.782
762.378	159.790
762.506	158.008
762.635	159.580
762.763	159.504
762.891	157.655
763.019	156.992
763.147	158.235
763.275	157.807
763.403	155.756
763.531	154.504
763.660	155.218
763.788	155.529
763.916	152.597
764.044	155.235
764.172	155.202
764.300	153.496
764.428	154.025
764.556	153.714
764.685	152.647
764.813	148.891
764.941	154.008
765.069	154.681
765.197	150.504
765.325	150.992
765.453	151.588
765.581	153.210
765.710	149.336
765.838	149.941
765.966	149.782
766.094	150.261
766.222	148.941
766.350	147.143
766.478	147.975
766.606	146.950
766.735	146.655
766.863	146.697
766.991	145.168
767.119	146.227
767.247	146.563
767.375	147.193
767.503	145.815
767.631	147.815
767.760	146.807
767.888	143.244
768.016	145.824
768.144	146.050
768.272	146.546
768.400	145.773
768.528	144.950
768.656	143.202
768.785	146.076
768.913	143.361
769.041	143.748
769.169	141.538
769.297	143.546
769.425	139.613
769.553	143.538
769.681	141.454
769.810	142.529
769.938	141.697
770.066	140.613
770.194	139.420
770.322	141.950
770.450	142.000
770.578	138.328
770.706	139.462
770.835	140.639
770.963	140.067
771.091	138.025
771.219	138.059
771.347	139.521
771.475	140.084
771.603	138.025
771.731	138.824
771.860	139.319
771.988	137.597
772.116	139.176
772.244	137.252
772.372	136.975
772.500	139.487
772.628	140.361
772.756	137.437
772.885	138.395
773.013	137.176
773.141	135.269
773.269	135.370
773.397	136.672
773.525	135.630
773.653	134.975
773.781	135.118
773.910	135.681
774.038	135.218
774.166	136.252
774.294	135.143
774.422	130.109
774.550	135.235
774.678	134.345
774.806	132.874
774.935	133.748
775.063	132.664
775.191	133.244
775.319	130.765
775.447	133.227
775.575	133.244
775.703	132.840
775.831	132.336
775.960	132.269
776.088	130.731
776.216	132.269
776.344	131.462
776.472	132.109
776.600	132.504
776.728	130.655
776.856	129.319
776.985	129.571
777.113	129.924
777.241	130.134
777.369	130.538
777.497	129.261
777.625	129.235
777.753	128.605
777.881	130.067
778.010	128.269
778.138	127.605
778.266	126.210
778.394	128.101
778.522	129.538
778.650	128.504
778.778	127.622
778.906	127.336
779.035	128.849
779.163	126.891
779.291	127.025
779.419	126.899
779.547	129.437
779.675	127.143
779.803	126.807
779.931	127.437
780.060	126.008
780.188	126.067
780.316	126.454
780.444	126.311
780.572	124.832
780.700	125.168
780.828	124.084
780.956	125.891
781.085	124.891
781.213	124.445
781.341	125.739
781.469	124.899
781.597	125.714
781.725	125.017
781.853	125.950
781.981	124.840
782.110	123.723
782.238	124.210
782.366	122.319
782.494	124.941
782.622	123.983
782.750	123.294
782.878	123.866
783.006	123.739
783.135	123.227
783.263	122.580
783.391	122.639
783.519	123.134
783.647	121.782
783.775	122.328
783.903	123.353
784.031	121.008
784.160	121.655
784.288	121.866
784.416	122.025
784.544	121.303
784.672	120.924
784.800	121.941
784.928	120.118
785.056	120.025
785.185	120.605
785.313	119.050
785.441	118.160
785.569	119.933
785.697	121.429
785.825	119.286
785.953	119.429
786.081	119.378
786.210	118.975
786.338	119.378
786.466	119.479
786.594	119.176
786.722	119.042
786.850	119.445
786.978	117.773
787.106	117.546
787.235	118.706
787.363	119.076
787.491	118.966
787.619	118.092
787.747	117.580
787.875	118.739
788.003	117.840
788.131	117.790
788.260	118.739
788.388	118.479
788.516	117.672
788.644	117.420
788.772	117.042
788.900	116.681
789.028	115.899
789.156	118.134
789.285	116.815
789.413	115.798
789.541	115.966
789.669	114.513
789.797	115.126
789.925	116.664
790.053	118.429
790.181	116.681
790.310	115.227
790.438	115.588
790.566	115.462
790.694	115.303
790.822	115.059
790.950	115.513
791.078	115.639
791.206	114.723
791.335	113.924
791.463	114.739
791.591	114.218
791.719	115.824
791.847	113.252
791.975	113.874
792.103	113.597
792.231	114.824
792.360	113.933
792.488	113.798
792.616	115.487
792.744	113.311
792.872	113.571
793.000	114.555
793.128	114.395
793.256	115.193
793.385	112.899
793.513	113.647
793.641	113.815
793.769	112.748
793.897	113.160
794.025	113.084
794.153	115.160
794.281	113.597
794.410	111.672
794.538	113.639
794.666	112.605
794.794	111.798
794.922	113.210
795.050	111.681
795.178	112.647
795.306	110.319
795.435	111.395
795.563	110.798
795.691	112.319
795.819	112.420
795.947	112.471
796.075	113.353
796.203	113.092
796.331	111.487
796.460	112.546
796.588	112.437
796.716	111.395
796.844	111.697
796.972	112.908
797.100	110.445
797.228	112.017
797.356	111.580
797.485	110.899
797.613	111.571
797.741	110.958
797.869	110.933
797.997	110.941
798.125	110.445
798.253	110.412
798.381	111.050
798.510	110.319
798.638	110.395
798.766	109.756
798.894	110.218
799.022	109.672
799.150	110.521
799.278	109.714
799.406	110.454
799.535	111.092
799.663	110.975
799.791	109.882
799.919	109.916
800.047	110.723
800.175	109.739
800.303	110.118
800.431	110.092
800.560	109.941
800.688	110.277
800.816	108.924
800.944	109.639
801.072	110.454
801.200	110.445
801.328	108.706
801.456	110.882
801.585	110.261
801.713	109.664
801.841	110.101
801.969	110.269
802.097	109.126
802.225	108.748
802.353	109.084
802.481	108.941
802.610	109.899
802.738	108.672
802.866	109.202
802.994	109.126
803.122	109.017
803.250	109.824
803.378	108.924
803.506	109.798
803.635	110.218
803.763	109.008
803.891	109.403
804.019	109.008
804.147	108.765
804.275	107.748
804.403	107.782
804.531	108.387
804.660	108.361
804.788	108.891
804.916	108.723
805.044	107.798
805.172	109.487
805.300	107.269
805.428	108.118
805.556	107.950
805.685	108.454
805.813	109.000
805.941	107.664
806.069	108.773
806.197	109.353
806.325	107.403
806.453	109.353
806.581	108.891
806.710	107.176
806.838	107.067
806.966	108.185
807.094	107.941
807.222	108.681
807.350	107.798
807.478	107.866
807.606	107.874
807.735	107.655
807.863	108.496
807.991	107.050
808.119	107.840
808.247	107.412
808.375	107.143
808.503	107.185
808.631	108.672
808.760	108.025
808.888	107.227
809.016	108.067
809.144	108.496
809.272	108.403
809.400	108.067
809.528	107.798
809.656	106.941
809.785	106.672
809.913	107.681
810.041	107.328
810.169	106.891
810.297	107.739
810.425	107.193
810.553	106.277
810.681	107.672
810.810	107.462
810.938	108.134
811.066	106.025
811.194	106.126
811.322	106.345
811.450	107.109
811.578	107.832
811.706	107.992
811.835	107.261
811.963	105.966
812.091	107.050
812.219	106.622
812.347	107.353
812.475	107.160
812.603	107.218
812.731	105.151
812.860	107.739
812.988	107.395
813.116	105.739
813.244	106.555
813.372	107.210
813.500	106.882
813.628	107.899
813.756	105.151
813.885	107.345
814.013	106.286
814.141	107.227
814.269	106.319
814.397	107.185
814.525	106.050
814.653	106.420
814.781	106.134
814.910	105.672
815.038	106.563
815.166	107.504
815.294	106.840
815.422	106.966
815.550	106.412
815.678	106.529
815.806	106.017
815.935	105.588
816.063	105.756
816.191	105.353
816.319	106.261
816.447	106.563
816.575	107.000
816.703	106.857
816.831	106.546
816.960	106.941
817.088	106.269
817.216	106.395
817.344	106.227
817.472	106.857
817.600	105.866
817.728	105.487
817.856	106.193
817.985	104.714
818.113	105.966
818.241	106.017
818.369	105.420
818.497	106.353
818.625	105.076
818.753	105.639
818.881	105.790
819.010	105.513
819.138	105.975
819.266	106.210
819.394	104.983
819.522	104.445
819.650	106.882
819.778	104.513
819.906	105.882
820.035	106.227
820.163	106.235
820.291	105.462
820.419	104.017
820.547	106.109
820.675	104.067
820.803	105.866
820.931	106.504
821.060	104.244
821.188	106.050
821.316	104.639
821.444	106.202
821.572	105.605
821.700	105.563
821.828	105.958
821.956	106.017
822.085	106.025
822.213	105.849
822.341	105.723
822.469	104.210
822.597	104.630
822.725	104.521
822.853	105.429
822.981	104.933
823.110	105.983
823.238	103.345
823.366	106.227
823.494	104.160
823.622	104.319
823.750	105.437
823.878	103.950
824.006	105.966
824.135	105.025
824.263	105.739
824.391	105.765
824.519	105.546
824.647	105.328
824.775	105.866
824.903	105.227
825.031	106.143
825.160	105.403
825.288	104.252
825.416	105.395
825.544	104.681
825.672	105.874
825.800	105.546
825.928	105.723
826.056	105.311
826.185	104.857
826.313	105.328
826.441	104.588
826.569	104.529
826.697	105.672
826.825	104.084
826.953	105.782
827.081	103.874
827.210	105.176
827.338	103.975
827.466	104.210
827.594	105.462
827.722	105.353
827.850	104.824
827.978	104.109
828.106	104.706
828.235	105.672
828.363	105.454
828.491	105.202
828.619	104.580
828.747	105.151
828.875	104.437
829.003	104.891
829.131	104.958
829.260	106.261
829.388	105.017
829.516	105.277
829.644	104.933
829.772	106.050
829.900	104.101
830.028	105.008
830.156	103.798
830.285	104.924
830.413	104.017
830.541	104.403
830.669	104.597
830.797	104.109
830.925	104.983
831.053	103.983
831.181	104.639
831.310	104.832
831.438	104.630
831.566	104.588
831.694	104.042
831.822	103.866
831.950	104.227
832.078	103.966
832.206	104.714
832.335	104.294
832.463	105.395
832.591	104.992
832.719	103.580
832.847	104.916
832.975	104.160
833.103	103.723
833.231	104.218
833.360	105.420
833.488	104.487
833.616	104.084
833.744	103.639
833.872	104.563
834.000	104.882
834.128	105.286
834.256	103.824
834.385	103.445
834.513	105.017
834.641	102.193
834.769	103.185
834.897	104.445
835.025	103.261
835.153	102.588
835.281	104.185
835.410	104.227
835.538	103.630
835.666	104.336
835.794	104.630
835.922	104.697
836.050	103.958
836.178	104.025
836.306	103.908
836.435	104.294
836.563	103.824
836.691	104.370
836.819	105.496
836.947	103.739
837.075	104.664
837.203	103.630
837.331	104.244
837.460	104.588
837.588	104.025
837.716	104.361
837.844	104.529
837.972	104.286
838.100	104.067
838.228	104.134
838.356	103.580
838.485	102.311
838.613	104.034
838.741	104.395
838.869	103.916
838.997	104.496
839.125	102.798
839.253	102.941
839.381	104.798
839.510	104.050
839.638	103.748
839.766	103.294
839.894	103.487
840.022	104.042
840.150	104.118
840.278	103.319
840.406	104.597
840.535	104.639
840.663	102.840
840.791	103.622
840.919	103.882
841.047	103.109
841.175	104.202
841.303	103.605
841.431	103.538
841.560	103.420
841.688	103.588
841.816	103.622
841.944	103.445
842.072	103.597
842.200	103.689
842.328	104.143
842.456	103.538
842.585	104.319
842.713	103.748
842.841	103.798
842.969	103.303
843.097	104.941
843.225	103.496
843.353	103.647
843.481	103.269
843.610	103.748
843.738	102.294
843.866	103.672
