70-90-unpol_at_679.99nm_cut_at_1283.50Y_01.dat
24.01.2024
11:29:08
cut middle at Y: 1283.50
top cursor: 1343 down cursor: 1224 mean of: 119 lines , 2560 datapoints
wavelength(nm)	intensity[arb. units]
515.994	1087.899
516.122	1029.286
516.250	1008.538
516.378	992.706
516.506	998.924
516.635	997.076
516.763	1011.353
516.891	1012.361
517.019	1010.227
517.147	1014.538
517.275	1024.647
517.403	1022.017
517.531	1013.546
517.660	1012.345
517.788	1017.723
517.916	1026.689
518.044	1013.731
518.172	1029.092
518.300	1028.588
518.428	1024.361
518.556	1027.891
518.685	1022.092
518.813	1031.983
518.941	1027.387
519.069	1031.504
519.197	1029.555
519.325	1043.420
519.453	1048.639
519.581	1057.387
519.710	1048.353
519.838	1047.042
519.966	1056.924
520.094	1050.655
520.222	1052.328
520.350	1065.286
520.478	1074.076
520.606	1070.210
520.735	1056.765
520.863	1073.336
520.991	1079.118
521.119	1083.866
521.247	1089.664
521.375	1091.580
521.503	1092.555
521.631	1097.731
521.760	1102.168
521.888	1103.714
522.016	1109.429
522.144	1095.966
522.272	1109.378
522.400	1105.983
522.528	1116.042
522.656	1117.773
522.785	1124.622
522.913	1125.042
523.041	1115.294
523.169	1121.403
523.297	1127.176
523.425	1127.605
523.553	1127.168
523.681	1123.857
523.810	1131.471
523.938	1144.345
524.066	1139.059
524.194	1139.849
524.322	1141.437
524.450	1145.353
524.578	1133.950
524.706	1144.966
524.835	1142.319
524.963	1139.134
525.091	1131.916
525.219	1137.714
525.347	1136.908
525.475	1148.866
525.603	1146.403
525.731	1148.546
525.860	1153.261
525.988	1131.176
526.116	1139.950
526.244	1149.672
526.372	1142.966
526.500	1145.471
526.628	1162.084
526.756	1136.403
526.885	1156.941
527.013	1153.420
527.141	1154.059
527.269	1148.084
527.397	1160.311
527.525	1161.571
527.653	1146.840
527.781	1143.084
527.910	1176.261
528.038	1166.252
528.166	1171.664
528.294	1163.143
528.422	1165.874
528.550	1171.504
528.678	1165.429
528.806	1177.588
528.935	1190.697
529.063	1182.807
529.191	1187.067
529.319	1190.588
529.447	1196.412
529.575	1193.336
529.703	1193.538
529.831	1200.966
529.960	1196.017
530.088	1193.748
530.216	1205.269
530.344	1201.252
530.472	1201.580
530.600	1210.479
530.728	1208.782
530.856	1215.454
530.985	1213.496
531.113	1202.555
531.241	1221.496
531.369	1217.118
531.497	1223.101
531.625	1220.571
531.753	1225.277
531.881	1230.034
532.010	1222.966
532.138	1212.924
532.266	1218.706
532.394	1219.277
532.522	1210.210
532.650	1235.437
532.778	1220.908
532.906	1226.160
533.035	1226.824
533.163	1219.941
533.291	1215.294
533.419	1209.218
533.547	1225.403
533.675	1221.908
533.803	1218.731
533.931	1232.681
534.060	1223.008
534.188	1230.067
534.316	1223.605
534.444	1221.849
534.572	1219.370
534.700	1225.034
534.828	1221.765
534.956	1229.235
535.085	1243.403
535.213	1234.353
535.341	1239.210
535.469	1226.269
535.597	1237.151
535.725	1242.933
535.853	1250.571
535.981	1247.000
536.110	1253.513
536.238	1253.370
536.366	1273.218
536.494	1239.807
536.622	1263.706
536.750	1265.655
536.878	1268.681
537.006	1283.353
537.135	1282.319
537.263	1287.815
537.391	1289.008
537.519	1282.286
537.647	1297.723
537.775	1301.160
537.903	1301.571
538.031	1297.218
538.160	1302.387
538.288	1301.874
538.416	1317.605
538.544	1309.109
538.672	1319.176
538.800	1324.874
538.928	1323.403
539.056	1334.202
539.185	1332.975
539.313	1323.328
539.441	1328.866
539.569	1336.958
539.697	1338.958
539.825	1347.563
539.953	1335.983
540.081	1318.882
540.210	1343.034
540.338	1344.714
540.466	1348.261
540.594	1348.202
540.722	1330.706
540.850	1348.824
540.978	1350.235
541.106	1350.529
541.235	1355.546
541.363	1345.092
541.491	1350.697
541.619	1340.992
541.747	1341.445
541.875	1350.748
542.003	1344.697
542.131	1346.622
542.260	1367.168
542.388	1355.605
542.516	1353.588
542.644	1359.866
542.772	1360.429
542.900	1360.748
543.028	1369.672
543.156	1378.538
543.285	1365.908
543.413	1361.042
543.541	1371.824
543.669	1382.092
543.797	1371.496
543.925	1370.731
544.053	1371.790
544.181	1378.261
544.310	1378.706
544.438	1368.252
544.566	1388.210
544.694	1393.840
544.822	1384.765
544.950	1394.899
545.078	1384.429
545.206	1381.748
545.335	1394.538
545.463	1380.160
545.591	1389.345
545.719	1380.017
545.847	1390.773
545.975	1399.218
546.103	1392.008
546.231	1399.361
546.360	1390.227
546.488	1397.731
546.616	1402.773
546.744	1406.118
546.872	1393.025
547.000	1398.664
547.128	1407.042
547.256	1405.185
547.385	1396.403
547.513	1394.630
547.641	1421.454
547.769	1414.613
547.897	1418.697
548.025	1417.555
548.153	1419.933
548.281	1402.193
548.410	1408.731
548.538	1410.101
548.666	1423.613
548.794	1420.857
548.922	1417.639
549.050	1431.067
549.178	1426.958
549.306	1427.874
549.435	1437.168
549.563	1423.958
549.691	1421.765
549.819	1440.504
549.947	1440.605
550.075	1431.706
550.203	1428.269
550.331	1433.513
550.460	1431.529
550.588	1431.244
550.716	1456.714
550.844	1424.143
550.972	1430.126
551.100	1430.588
551.228	1438.597
551.356	1426.471
551.485	1442.815
551.613	1424.605
551.741	1427.950
551.869	1419.227
551.997	1419.824
552.125	1424.824
552.253	1425.790
552.381	1408.487
552.510	1414.420
552.638	1419.798
552.766	1426.765
552.894	1409.655
553.022	1403.798
553.150	1411.563
553.278	1411.605
553.406	1412.235
553.535	1419.286
553.663	1403.773
553.791	1406.370
553.919	1396.647
554.047	1419.034
554.175	1408.756
554.303	1413.546
554.431	1397.395
554.560	1402.824
554.688	1422.950
554.816	1408.849
554.944	1412.798
555.072	1412.605
555.200	1413.647
555.328	1411.840
555.456	1423.723
555.585	1426.454
555.713	1424.832
555.841	1425.773
555.969	1414.042
556.097	1441.496
556.225	1436.933
556.353	1434.739
556.481	1430.950
556.610	1448.395
556.738	1444.202
556.866	1448.336
556.994	1442.210
557.122	1439.496
557.250	1448.563
557.378	1460.538
557.506	1445.992
557.635	1440.462
557.763	1462.538
557.891	1465.109
558.019	1452.311
558.147	1470.521
558.275	1466.084
558.403	1479.176
558.531	1467.571
558.660	1470.017
558.788	1465.958
558.916	1471.773
559.044	1467.403
559.172	1462.513
559.300	1485.798
559.428	1475.689
559.556	1484.218
559.685	1482.387
559.813	1478.748
559.941	1477.353
560.069	1491.807
560.197	1490.395
560.325	1486.782
560.453	1482.109
560.581	1490.647
560.710	1489.840
560.838	1484.992
560.966	1496.513
561.094	1498.143
561.222	1484.303
561.350	1483.235
561.478	1485.849
561.606	1501.303
561.735	1480.815
561.863	1481.773
561.991	1490.630
562.119	1481.126
562.247	1491.101
562.375	1489.908
562.503	1489.143
562.631	1483.109
562.760	1490.941
562.888	1487.798
563.016	1482.193
563.144	1482.807
563.272	1488.840
563.400	1480.168
563.528	1481.773
563.656	1490.672
563.785	1487.916
563.913	1483.336
564.041	1485.504
564.169	1486.983
564.297	1488.353
564.425	1475.739
564.553	1500.849
564.681	1499.496
564.810	1491.773
564.938	1507.824
565.066	1499.983
565.194	1509.521
565.322	1500.437
565.450	1511.462
565.578	1516.412
565.706	1506.017
565.835	1522.202
565.963	1505.580
566.091	1516.160
566.219	1526.563
566.347	1533.866
566.475	1519.496
566.603	1523.832
566.731	1531.092
566.860	1540.017
566.988	1531.874
567.116	1537.639
567.244	1548.815
567.372	1551.454
567.500	1560.319
567.628	1554.983
567.756	1561.496
567.885	1564.429
568.013	1578.529
568.141	1576.664
568.269	1574.958
568.397	1579.689
568.525	1563.891
568.653	1599.370
568.781	1604.092
568.910	1613.504
569.038	1601.286
569.166	1591.303
569.294	1595.454
569.422	1614.303
569.550	1595.269
569.678	1614.571
569.806	1617.807
569.935	1617.706
570.063	1622.966
570.191	1638.882
570.319	1641.218
570.447	1637.992
570.575	1638.286
570.703	1652.361
570.831	1658.370
570.960	1655.529
571.088	1651.479
571.216	1651.008
571.344	1646.084
571.472	1660.966
571.600	1673.311
571.728	1662.471
571.856	1676.681
571.985	1684.345
572.113	1680.975
572.241	1674.782
572.369	1692.706
572.497	1691.479
572.625	1690.311
572.753	1692.361
572.881	1702.782
573.010	1704.025
573.138	1729.983
573.266	1708.966
573.394	1719.462
573.522	1714.647
573.650	1723.487
573.778	1712.882
573.906	1716.445
574.035	1709.025
574.163	1730.261
574.291	1724.588
574.419	1732.529
574.547	1738.563
574.675	1741.345
574.803	1743.311
574.931	1734.218
575.060	1750.303
575.188	1744.076
575.316	1744.899
575.444	1743.437
575.572	1757.277
575.700	1739.471
575.828	1765.874
575.956	1755.597
576.085	1747.429
576.213	1772.622
576.341	1745.958
576.469	1767.958
576.597	1751.521
576.725	1761.647
576.853	1757.840
576.981	1754.832
577.110	1752.824
577.238	1776.521
577.366	1760.580
577.494	1756.706
577.622	1760.042
577.750	1775.992
577.878	1762.134
578.006	1786.555
578.135	1767.269
578.263	1775.076
578.391	1800.723
578.519	1775.605
578.647	1783.958
578.775	1784.891
578.903	1774.210
579.031	1800.941
579.160	1779.975
579.288	1769.277
579.416	1785.126
579.544	1804.882
579.672	1803.782
579.800	1799.378
579.928	1784.815
580.056	1796.479
580.185	1802.294
580.313	1803.193
580.441	1808.118
580.569	1805.672
580.697	1800.504
580.825	1816.521
580.953	1824.664
581.081	1822.118
581.210	1839.403
581.338	1848.773
581.466	1838.689
581.594	1855.084
581.722	1849.513
581.850	1841.235
581.978	1858.571
582.106	1865.370
582.235	1872.529
582.363	1861.924
582.491	1876.126
582.619	1870.689
582.747	1887.118
582.875	1875.824
583.003	1911.000
583.131	1906.748
583.260	1905.832
583.388	1926.092
583.516	1923.538
583.644	1920.706
583.772	1938.613
583.900	1953.294
584.028	1975.513
584.156	1937.185
584.285	1980.689
584.413	1965.723
584.541	1979.412
584.669	1980.437
584.797	1987.328
584.925	2004.849
585.053	2009.176
585.181	2000.496
585.310	2019.882
585.438	2023.235
585.566	2033.168
585.694	2054.176
585.822	2051.118
585.950	2039.269
586.078	2068.647
586.206	2071.252
586.335	2068.622
586.463	2091.210
586.591	2091.655
586.719	2103.571
586.847	2106.008
586.975	2109.580
587.103	2111.227
587.231	2109.252
587.360	2110.487
587.488	2124.891
587.616	2123.798
587.744	2152.160
587.872	2139.546
588.000	2146.471
588.128	2160.084
588.256	2151.798
588.385	2143.092
588.513	2150.252
588.641	2169.395
588.769	2189.252
588.897	2169.790
589.025	2168.412
589.153	2192.025
589.281	2174.555
589.410	2193.605
589.538	2204.286
589.666	2193.849
589.794	2186.319
589.922	2216.412
590.050	2226.723
590.178	2201.109
590.306	2206.647
590.435	2224.429
590.563	2214.050
590.691	2229.504
590.819	2244.160
590.947	2255.294
591.075	2240.975
591.203	2244.950
591.331	2252.983
591.460	2255.580
591.588	2265.571
591.716	2261.092
591.844	2259.303
591.972	2291.992
592.100	2278.714
592.228	2282.050
592.356	2274.655
592.485	2276.924
592.613	2283.303
592.741	2309.941
592.869	2288.445
592.997	2311.034
593.125	2311.647
593.253	2335.395
593.381	2341.017
593.510	2346.941
593.638	2342.563
593.766	2336.345
593.894	2344.277
594.022	2365.361
594.150	2372.529
594.278	2380.689
594.406	2364.445
594.535	2370.218
594.663	2376.546
594.791	2402.924
594.919	2396.370
595.047	2411.958
595.175	2424.252
595.303	2399.445
595.431	2425.899
595.560	2462.605
595.688	2440.790
595.816	2462.479
595.944	2455.681
596.072	2448.395
596.200	2467.252
596.328	2466.563
596.456	2461.101
596.585	2473.235
596.713	2491.782
596.841	2506.176
596.969	2503.908
597.097	2514.235
597.225	2522.571
597.353	2537.647
597.481	2543.176
597.610	2545.546
597.738	2579.462
597.866	2549.655
597.994	2570.168
598.122	2611.084
598.250	2598.042
598.378	2587.513
598.506	2588.681
598.635	2610.479
598.763	2606.353
598.891	2617.975
599.019	2634.555
599.147	2651.462
599.275	2629.454
599.403	2664.597
599.531	2666.571
599.660	2667.714
599.788	2668.084
599.916	2681.008
600.044	2722.353
600.172	2688.697
600.300	2693.353
600.428	2701.874
600.556	2714.655
600.685	2774.521
600.813	2736.773
600.941	2754.689
601.069	2749.916
601.197	2752.924
601.325	2776.807
601.453	2753.319
601.581	2803.714
601.710	2800.269
601.838	2801.765
601.966	2887.454
602.094	2901.176
602.222	2836.454
602.350	2828.613
602.478	2856.395
602.606	2912.084
602.735	2836.664
602.863	2917.555
602.991	2920.798
603.119	2887.471
603.247	2894.067
603.375	2911.882
603.503	2948.126
603.631	2963.353
603.760	2974.504
603.888	2987.084
604.016	2969.429
604.144	2964.899
604.272	2998.303
604.400	3020.067
604.528	3028.824
604.656	3045.563
604.785	3061.613
604.913	3108.941
605.041	3057.546
605.169	3094.546
605.297	3079.000
605.425	3093.000
605.553	3125.050
605.681	3098.807
605.810	3172.756
605.938	3158.277
606.066	3133.798
606.194	3161.462
606.322	3161.134
606.450	3172.378
606.578	3161.655
606.706	3200.874
606.835	3211.874
606.963	3256.681
607.091	3251.630
607.219	3217.966
607.347	3220.630
607.475	3260.689
607.603	3236.941
607.731	3237.168
607.860	3256.748
607.988	3269.050
608.116	3301.857
608.244	3265.328
608.372	3311.185
608.500	3301.773
608.628	3281.479
608.756	3300.950
608.885	3336.689
609.013	3298.471
609.141	3296.882
609.269	3282.815
609.397	3306.059
609.525	3330.143
609.653	3370.706
609.781	3322.521
609.910	3367.496
610.038	3426.773
610.166	3366.092
610.294	3348.983
610.422	3382.008
610.550	3351.941
610.678	3365.714
610.806	3374.261
610.935	3372.748
611.063	3393.252
611.191	3416.168
611.319	3405.168
611.447	3399.513
611.575	3396.782
611.703	3390.975
611.831	3427.403
611.960	3420.588
612.088	3431.370
612.216	3443.252
612.344	3433.034
612.472	3471.059
612.600	3454.168
612.728	3468.210
612.856	3440.269
612.985	3467.588
613.113	3503.513
613.241	3482.286
613.369	3497.109
613.497	3505.328
613.625	3503.563
613.753	3522.866
613.881	3548.647
614.010	3497.630
614.138	3542.655
614.266	3536.866
614.394	3570.168
614.522	3583.050
614.650	3566.672
614.778	3569.504
614.906	3562.739
615.035	3613.664
615.163	3572.748
615.291	3627.277
615.419	3599.151
615.547	3616.076
615.675	3629.597
615.803	3671.445
615.931	3662.950
616.060	3650.529
616.188	3684.714
616.316	3681.849
616.444	3656.294
616.572	3718.202
616.700	3724.496
616.828	3715.723
616.956	3752.613
617.085	3743.782
617.213	3718.076
617.341	3770.866
617.469	3845.294
617.597	3768.479
617.725	3767.924
617.853	3769.370
617.981	3790.000
618.110	3835.496
618.238	3836.714
618.366	3821.277
618.494	3837.328
618.622	3855.328
618.750	3921.992
618.878	3896.311
619.006	3883.975
619.135	3951.622
619.263	3922.891
619.391	3913.345
619.519	3962.193
619.647	4028.782
619.775	3998.025
619.903	4009.924
620.031	3991.185
620.160	4002.882
620.288	4057.807
620.416	4043.462
620.544	4079.168
620.672	4071.395
620.800	4106.647
620.928	4096.571
621.056	4135.714
621.185	4132.555
621.313	4123.613
621.441	4156.370
621.569	4145.361
621.697	4186.807
621.825	4201.983
621.953	4182.790
622.081	4235.647
622.210	4221.983
622.338	4254.966
622.466	4286.050
622.594	4281.630
622.722	4263.824
622.850	4331.798
622.978	4345.134
623.106	4360.252
623.235	4323.126
623.363	4345.832
623.491	4351.697
623.619	4385.950
623.747	4362.403
623.875	4402.151
624.003	4389.143
624.131	4409.815
624.260	4443.269
624.388	4391.151
624.516	4432.723
624.644	4441.067
624.772	4453.840
624.900	4431.378
625.028	4482.891
625.156	4478.765
625.285	4505.050
625.413	4518.143
625.541	4503.429
625.669	4532.126
625.797	4539.891
625.925	4527.378
626.053	4542.378
626.181	4525.697
626.310	4642.235
626.438	4543.782
626.566	4568.866
626.694	4587.731
626.822	4578.563
626.950	4600.311
627.078	4584.639
627.206	4612.134
627.335	4611.916
627.463	4598.361
627.591	4637.975
627.719	4715.303
627.847	4650.025
627.975	4657.471
628.103	4690.555
628.231	4667.815
628.360	4675.941
628.488	4702.008
628.616	4704.832
628.744	4719.303
628.872	4707.328
629.000	4727.487
629.128	4739.294
629.256	4715.328
629.385	4742.992
629.513	4746.983
629.641	4763.462
629.769	4795.395
629.897	4791.908
630.025	4765.672
630.153	4840.815
630.281	4799.311
630.410	4819.672
630.538	4826.992
630.666	4840.689
630.794	4832.697
630.922	4885.403
631.050	4836.008
631.178	4865.479
631.306	4862.378
631.435	4873.143
631.563	4886.580
631.691	4916.605
631.819	4963.992
631.947	4886.731
632.075	4881.790
632.203	4947.126
632.331	4899.588
632.460	4922.849
632.588	4935.345
632.716	4951.109
632.844	5004.933
632.972	4921.580
633.100	4922.849
633.228	4988.151
633.356	4969.773
633.485	4963.454
633.613	4979.563
633.741	5009.034
633.869	4991.655
633.997	4999.252
634.125	5044.790
634.253	5008.941
634.381	5028.790
634.510	5041.941
634.638	5046.706
634.766	5081.160
634.894	5046.496
635.022	5043.168
635.150	5048.000
635.278	5064.513
635.406	5063.412
635.535	5064.714
635.663	5098.244
635.791	5036.134
635.919	5056.807
636.047	5056.000
636.175	5088.773
636.303	5085.672
636.431	5101.849
636.560	5117.983
636.688	5080.303
636.816	5105.555
636.944	5104.286
637.072	5128.840
637.200	5144.933
637.328	5129.050
637.456	5129.739
637.585	5130.025
637.713	5172.336
637.841	5134.395
637.969	5164.286
638.097	5170.361
638.225	5188.487
638.353	5167.454
638.481	5162.521
638.610	5185.891
638.738	5178.034
638.866	5215.773
638.994	5220.866
639.122	5188.042
639.250	5204.546
639.378	5254.597
639.506	5245.101
639.635	5252.017
639.763	5209.714
639.891	5249.487
640.019	5285.395
640.147	5304.109
640.275	5255.168
640.403	5262.630
640.531	5328.992
640.660	5293.244
640.788	5372.773
640.916	5332.664
641.044	5315.227
641.172	5329.143
641.300	5353.050
641.428	5325.050
641.556	5372.193
641.685	5376.815
641.813	5377.521
641.941	5382.966
642.069	5397.807
642.197	5428.025
642.325	5435.252
642.453	5411.126
642.581	5523.050
642.710	5412.555
642.838	5451.395
642.966	5434.151
643.094	5470.244
643.222	5465.244
643.350	5484.857
643.478	5527.714
643.606	5483.756
643.735	5461.437
643.863	5511.017
643.991	5525.143
644.119	5533.983
644.247	5524.706
644.375	5521.555
644.503	5563.126
644.631	5558.739
644.760	5580.067
644.888	5589.739
645.016	5573.210
645.144	5603.773
645.272	5568.765
645.400	5614.286
645.528	5614.109
645.656	5618.294
645.785	5619.807
645.913	5672.748
646.041	5650.429
646.169	5691.059
646.297	5612.605
646.425	5659.882
646.553	5645.739
646.681	5612.672
646.810	5660.748
646.938	5621.874
647.066	5592.185
647.194	5690.277
647.322	5634.101
647.450	5626.681
647.578	5654.311
647.706	5645.815
647.835	5635.017
647.963	5686.613
648.091	5615.050
648.219	5672.210
648.347	5683.748
648.475	5668.286
648.603	5646.345
648.731	5593.395
648.860	5614.664
648.988	5608.244
649.116	5610.311
649.244	5581.664
649.372	5654.790
649.500	5617.933
649.628	5649.471
649.756	5593.445
649.885	5588.563
650.013	5563.126
650.141	5588.773
650.269	5565.966
650.397	5542.630
650.525	5515.739
650.653	5597.143
650.781	5543.370
650.910	5521.798
651.038	5501.689
651.166	5496.160
651.294	5496.328
651.422	5495.176
651.550	5468.882
651.678	5505.092
651.806	5493.571
651.935	5469.202
652.063	5483.420
652.191	5446.975
652.319	5420.185
652.447	5446.756
652.575	5423.613
652.703	5447.151
652.831	5450.445
652.960	5406.395
653.088	5424.361
653.216	5399.958
653.344	5401.874
653.472	5384.807
653.600	5381.983
653.728	5367.597
653.856	5383.765
653.985	5364.697
654.113	5351.546
654.241	5374.672
654.369	5366.050
654.497	5392.479
654.625	5368.958
654.753	5327.462
654.881	5361.126
655.010	5408.168
655.138	5344.319
655.266	5331.941
655.394	5328.866
655.522	5373.303
655.650	5277.790
655.778	5362.151
655.906	5312.151
656.035	5277.773
656.163	5294.420
656.291	5297.798
656.419	5323.311
656.547	5275.210
656.675	5291.067
656.803	5301.639
656.931	5258.437
657.060	5286.303
657.188	5294.134
657.316	5277.269
657.444	5241.924
657.572	5239.933
657.700	5265.218
657.828	5250.613
657.956	5286.050
658.085	5323.118
658.213	5312.790
658.341	5296.639
658.469	5285.824
658.597	5330.765
658.725	5258.244
658.853	5260.151
658.981	5244.437
659.110	5273.193
659.238	5288.529
659.366	5237.378
659.494	5221.689
659.622	5204.151
659.750	5210.067
659.878	5186.445
660.006	5210.798
660.135	5208.311
660.263	5200.126
660.391	5276.782
660.519	5256.067
660.647	5188.311
660.775	5171.294
660.903	5134.613
661.031	5146.983
661.160	5212.193
661.288	5183.504
661.416	5190.126
661.544	5168.269
661.672	5133.790
661.800	5132.353
661.928	5140.403
662.056	5201.924
662.185	5084.546
662.313	5125.151
662.441	5190.655
662.569	5143.471
662.697	5110.092
662.825	5090.017
662.953	5083.218
663.081	5068.059
663.210	5091.126
663.338	5075.874
663.466	5060.000
663.594	5102.622
663.722	5043.479
663.850	5075.723
663.978	5048.580
664.106	5120.345
664.235	5034.076
664.363	5072.462
664.491	5062.092
664.619	5040.622
664.747	5009.521
664.875	5019.681
665.003	5045.655
665.131	4969.630
665.260	5052.218
665.388	4996.689
665.516	4976.059
665.644	4991.891
665.772	4989.395
665.900	5012.832
666.028	4945.874
666.156	4968.092
666.285	4968.185
666.413	4971.109
666.541	4966.462
666.669	4939.076
666.797	4893.555
666.925	4928.445
667.053	4959.950
667.181	4892.874
667.310	4931.739
667.438	4901.378
667.566	4908.950
667.694	4934.084
667.822	4907.765
667.950	4860.681
668.078	4881.303
668.206	4878.235
668.335	4829.882
668.463	4851.832
668.591	4850.202
668.719	4863.193
668.847	4825.092
668.975	4836.739
669.103	4824.429
669.231	4831.874
669.360	4776.538
669.488	4800.025
669.616	4767.857
669.744	4824.261
669.872	4753.630
670.000	4779.261
670.128	4742.059
670.256	4730.672
670.385	4764.151
670.513	4729.437
670.641	4764.504
670.769	4765.076
670.897	4693.126
671.025	4711.546
671.153	4699.336
671.281	4726.815
671.410	4734.118
671.538	4687.345
671.666	4709.387
671.794	4709.874
671.922	4658.555
672.050	4726.588
672.178	4622.555
672.306	4628.067
672.435	4650.118
672.563	4638.067
672.691	4643.815
672.819	4619.487
672.947	4582.176
673.075	4566.487
673.203	4587.639
673.331	4533.571
673.460	4548.521
673.588	4542.891
673.716	4559.992
673.844	4534.857
673.972	4516.454
674.100	4488.529
674.228	4509.630
674.356	4470.739
674.485	4466.546
674.613	4474.168
674.741	4456.126
674.869	4401.412
674.997	4460.496
675.125	4440.067
675.253	4373.437
675.381	4403.882
675.510	4367.277
675.638	4384.168
675.766	4337.992
675.894	4385.580
676.022	4319.076
676.150	4322.597
676.278	4325.387
676.406	4319.664
676.535	4313.891
676.663	4289.487
676.791	4275.252
676.919	4251.513
677.047	4214.143
677.175	4232.210
677.303	4303.908
677.431	4160.723
677.560	4181.126
677.688	4162.840
677.816	4206.420
677.944	4143.479
678.072	4113.176
678.200	4089.899
678.328	4123.555
678.456	4114.437
678.585	4076.420
678.713	4083.471
678.841	4051.067
678.969	4066.160
679.097	4056.714
679.225	4048.496
679.353	4005.311
679.481	3974.496
679.610	3989.765
679.738	3954.193
679.866	3991.387
679.994	3964.168
680.122	3963.000
680.250	3899.832
680.378	3918.597
680.506	3869.958
680.635	3898.311
680.763	3933.731
680.891	3897.168
681.019	3837.899
681.147	3896.294
681.275	3840.681
681.403	3824.605
681.531	3804.042
681.660	3826.513
681.788	3874.067
681.916	3773.882
682.044	3783.756
682.172	3796.252
682.300	3737.672
682.428	3737.034
682.556	3741.546
682.685	3739.412
682.813	3759.975
682.941	3725.916
683.069	3688.950
683.197	3703.227
683.325	3690.723
683.453	3689.151
683.581	3699.630
683.710	3656.429
683.838	3635.958
683.966	3629.479
684.094	3659.261
684.222	3614.303
684.350	3624.210
684.478	3585.790
684.606	3623.723
684.735	3587.025
684.863	3566.303
684.991	3609.479
685.119	3614.739
685.247	3637.092
685.375	3533.773
685.503	3571.471
685.631	3595.361
685.760	3536.538
685.888	3518.118
686.016	3534.975
686.144	3557.403
686.272	3507.496
686.400	3483.210
686.528	3461.966
686.656	3447.034
686.785	3456.471
686.913	3429.866
687.041	3420.538
687.169	3424.067
687.297	3463.891
687.425	3444.840
687.553	3419.655
687.681	3370.882
687.810	3398.050
687.938	3397.748
688.066	3364.613
688.194	3391.672
688.322	3392.840
688.450	3381.933
688.578	3349.454
688.706	3343.378
688.835	3385.756
688.963	3349.622
689.091	3340.269
689.219	3313.924
689.347	3306.151
689.475	3340.420
689.603	3315.193
689.731	3316.210
689.860	3293.866
689.988	3258.521
690.116	3270.664
690.244	3313.950
690.372	3252.966
690.500	3233.244
690.628	3271.597
690.756	3230.084
690.885	3199.849
691.013	3232.042
691.141	3205.538
691.269	3228.513
691.397	3182.521
691.525	3187.756
691.653	3192.067
691.781	3163.681
691.910	3183.126
692.038	3201.933
692.166	3141.168
692.294	3199.983
692.422	3146.395
692.550	3179.664
692.678	3119.723
692.806	3137.429
692.935	3109.815
693.063	3063.202
693.191	3112.294
693.319	3088.697
693.447	3075.244
693.575	3042.134
693.703	3107.025
693.831	3061.782
693.960	3030.118
694.088	3004.756
694.216	3037.748
694.344	3051.647
694.472	3006.361
694.600	2990.202
694.728	2975.454
694.856	2966.160
694.985	2948.076
695.113	2954.395
695.241	2956.580
695.369	2961.109
695.497	2937.681
695.625	2913.412
695.753	2906.924
695.881	2883.050
696.010	2860.185
696.138	2875.538
696.266	2845.462
696.394	2840.126
696.522	2819.966
696.650	2824.655
696.778	2852.773
696.906	2815.731
697.035	2789.731
697.163	2796.471
697.291	2777.992
697.419	2766.311
697.547	2761.353
697.675	2767.151
697.803	2727.849
697.931	2713.042
698.060	2714.857
698.188	2706.118
698.316	2720.084
698.444	2653.235
698.572	2674.504
698.700	2677.008
698.828	2622.782
698.956	2636.395
699.085	2667.571
699.213	2644.059
699.341	2587.773
699.469	2594.345
699.597	2577.336
699.725	2585.563
699.853	2567.899
699.981	2526.479
700.110	2539.403
700.238	2538.210
700.366	2518.067
700.494	2509.336
700.622	2496.655
700.750	2552.429
700.878	2561.059
701.006	2485.454
701.135	2482.790
701.263	2463.992
701.391	2442.067
701.519	2450.437
701.647	2442.681
701.775	2390.034
701.903	2415.630
702.031	2396.521
702.160	2403.008
702.288	2364.639
702.416	2383.151
702.544	2380.008
702.672	2352.218
702.800	2351.874
702.928	2361.227
703.056	2315.067
703.185	2323.840
703.313	2324.361
703.441	2314.992
703.569	2336.798
703.697	2297.202
703.825	2300.924
703.953	2300.975
704.081	2289.697
704.210	2255.118
704.338	2262.261
704.466	2246.824
704.594	2249.303
704.722	2230.521
704.850	2229.588
704.978	2222.008
705.106	2214.319
705.235	2195.739
705.363	2183.008
705.491	2182.479
705.619	2170.328
705.747	2151.193
705.875	2180.269
706.003	2140.185
706.131	2150.277
706.260	2114.824
706.388	2123.218
706.516	2095.437
706.644	2093.571
706.772	2100.395
706.900	2065.933
707.028	2072.017
707.156	2048.950
707.285	2051.235
707.413	2042.235
707.541	2036.059
707.669	2016.227
707.797	2022.908
707.925	2013.992
708.053	2007.034
708.181	2001.193
708.310	1983.790
708.438	1975.092
708.566	1956.429
708.694	1963.235
708.822	1967.345
708.950	1946.597
709.078	1920.706
709.206	1920.034
709.335	1904.538
709.463	1889.017
709.591	1897.261
709.719	1880.546
709.847	1882.244
709.975	1878.202
710.103	1852.672
710.231	1852.521
710.360	1831.092
710.488	1821.227
710.616	1816.588
710.744	1809.126
710.872	1815.261
711.000	1794.958
711.128	1769.454
711.256	1766.092
711.385	1769.958
711.513	1765.025
711.641	1753.126
711.769	1748.487
711.897	1744.118
712.025	1716.739
712.153	1716.244
712.281	1717.723
712.410	1698.353
712.538	1711.487
712.666	1686.126
712.794	1685.471
712.922	1673.420
713.050	1675.151
713.178	1657.849
713.306	1663.269
713.435	1649.731
713.563	1630.294
713.691	1646.664
713.819	1632.487
713.947	1619.622
714.075	1611.966
714.203	1607.437
714.331	1605.798
714.460	1584.126
714.588	1585.849
714.716	1571.571
714.844	1567.571
714.972	1558.807
715.100	1560.429
715.228	1556.487
715.356	1548.076
715.485	1540.235
715.613	1520.798
715.741	1524.244
715.869	1518.773
715.997	1502.218
716.125	1493.370
716.253	1500.277
716.381	1508.908
716.510	1499.050
716.638	1477.773
716.766	1476.908
716.894	1468.378
717.022	1459.622
717.150	1441.429
717.278	1440.908
717.406	1443.941
717.535	1436.639
717.663	1444.588
717.791	1429.412
717.919	1420.765
718.047	1411.521
718.175	1409.790
718.303	1408.529
718.431	1406.798
718.560	1388.218
718.688	1383.471
718.816	1376.462
718.944	1373.765
719.072	1373.756
719.200	1363.370
719.328	1345.639
719.456	1352.983
719.585	1349.975
719.713	1344.941
719.841	1339.269
719.969	1327.933
720.097	1322.807
720.225	1310.025
720.353	1306.941
720.481	1303.420
720.610	1298.647
720.738	1294.664
720.866	1291.521
720.994	1284.378
721.122	1281.798
721.250	1272.580
721.378	1259.118
721.506	1268.815
721.635	1254.328
721.763	1249.143
721.891	1248.437
722.019	1242.269
722.147	1232.924
722.275	1230.992
722.403	1229.252
722.531	1213.487
722.660	1207.504
722.788	1206.008
722.916	1199.168
723.044	1191.092
723.172	1188.202
723.300	1180.454
723.428	1181.134
723.556	1171.387
723.685	1166.118
723.813	1162.689
723.941	1146.672
724.069	1152.126
724.197	1138.050
724.325	1128.118
724.453	1132.529
724.581	1124.571
724.710	1124.319
724.838	1115.126
724.966	1094.462
725.094	1099.328
725.222	1097.513
725.350	1092.908
725.478	1087.193
725.606	1080.840
725.735	1063.672
725.863	1073.437
725.991	1060.479
726.119	1056.538
726.247	1045.084
726.375	1046.412
726.503	1043.387
726.631	1035.504
726.760	1023.370
726.888	1021.303
727.016	1021.513
727.144	1017.000
727.272	1002.546
727.400	993.739
727.528	984.504
727.656	996.924
727.785	974.748
727.913	978.496
728.041	962.966
728.169	978.370
728.297	959.992
728.425	956.538
728.553	955.529
728.681	946.807
728.810	934.891
728.938	934.891
729.066	936.403
729.194	928.109
729.322	914.773
729.450	915.345
729.578	917.143
729.706	909.286
729.835	914.538
729.963	898.210
730.091	890.479
730.219	886.445
730.347	887.429
730.475	872.092
730.603	871.328
730.731	877.958
730.860	863.042
730.988	864.420
731.116	866.765
731.244	857.345
731.372	848.916
731.500	846.992
731.628	840.840
731.756	836.252
731.885	830.176
732.013	832.874
732.141	827.555
732.269	823.042
732.397	819.429
732.525	809.647
732.653	809.303
732.781	810.185
732.910	804.210
733.038	798.370
733.166	788.126
733.294	792.168
733.422	785.160
733.550	781.353
733.678	777.958
733.806	779.487
733.935	777.479
734.063	766.639
734.191	767.050
734.319	761.782
734.447	762.445
734.575	756.084
734.703	752.210
734.831	742.345
734.960	746.521
735.088	738.294
735.216	742.176
735.344	733.765
735.472	725.773
735.600	727.588
735.728	720.605
735.856	717.429
735.985	711.143
736.113	710.882
736.241	709.605
736.369	711.101
736.497	702.765
736.625	709.882
736.753	700.025
736.881	688.118
737.010	686.092
737.138	692.899
737.266	682.126
737.394	680.227
737.522	683.723
737.650	669.151
737.778	663.370
737.906	666.420
738.035	662.395
738.163	663.109
738.291	657.840
738.419	643.655
738.547	650.597
738.675	646.538
738.803	643.992
738.931	643.193
739.060	639.664
739.188	635.437
739.316	632.303
739.444	632.471
739.572	621.059
739.700	618.454
739.828	626.328
739.956	619.143
740.085	618.933
740.213	613.765
740.341	611.403
740.469	613.227
740.597	602.866
740.725	607.235
740.853	604.790
740.981	596.143
741.110	598.815
741.238	595.168
741.366	584.496
741.494	592.748
741.622	582.227
741.750	589.924
741.878	581.723
742.006	577.941
742.135	573.076
742.263	572.437
742.391	571.647
742.519	573.563
742.647	563.420
742.775	563.160
742.903	561.739
743.031	558.874
743.160	555.798
743.288	553.916
743.416	546.420
743.544	550.118
743.672	545.866
743.800	546.412
743.928	539.294
744.056	542.765
744.185	540.782
744.313	536.151
744.441	533.353
744.569	533.353
744.697	532.168
744.825	533.445
744.953	526.429
745.081	521.504
745.210	520.042
745.338	523.286
745.466	507.924
745.594	510.706
745.722	506.034
745.850	501.387
745.978	504.916
746.106	506.496
746.235	498.345
746.363	500.655
746.491	496.420
746.619	500.084
746.747	494.000
746.875	487.958
747.003	488.286
747.131	484.933
747.260	483.992
747.388	481.286
747.516	482.412
747.644	474.697
747.772	475.975
747.900	472.017
748.028	470.672
748.156	466.731
748.285	470.336
748.413	467.571
748.541	460.336
748.669	453.244
748.797	461.176
748.925	454.782
749.053	451.454
749.181	447.319
749.310	448.891
749.438	447.185
749.566	449.235
749.694	441.303
749.822	440.521
749.950	441.168
750.078	441.387
750.206	432.286
750.335	430.622
750.463	428.034
750.591	431.227
750.719	428.134
750.847	421.277
750.975	423.824
751.103	412.445
751.231	423.017
751.360	415.126
751.488	412.345
751.616	407.336
751.744	407.815
751.872	402.244
752.000	402.101
752.128	407.042
752.256	399.303
752.385	399.261
752.513	395.395
752.641	391.101
752.769	401.437
752.897	391.622
753.025	390.370
753.153	388.286
753.281	384.218
753.410	387.630
753.538	383.672
753.666	380.899
753.794	378.630
753.922	381.429
754.050	379.109
754.178	375.807
754.306	370.034
754.435	372.739
754.563	370.756
754.691	366.546
754.819	368.059
754.947	366.126
755.075	366.445
755.203	362.630
755.331	360.941
755.460	354.471
755.588	358.639
755.716	354.529
755.844	351.723
755.972	354.345
756.100	354.420
756.228	350.252
756.356	347.639
756.485	352.193
756.613	346.933
756.741	340.647
756.869	342.807
756.997	343.059
757.125	342.899
757.253	342.546
757.381	337.050
757.510	339.731
757.638	333.252
757.766	332.353
757.894	328.983
758.022	332.882
758.150	334.345
758.278	331.328
758.406	324.782
758.535	325.807
758.663	323.202
758.791	326.546
758.919	319.294
759.047	322.353
759.175	322.840
759.303	317.378
759.431	317.672
759.560	317.269
759.688	314.311
759.816	312.824
759.944	306.882
760.072	309.807
760.200	307.748
760.328	310.218
760.456	302.966
760.585	307.134
760.713	303.697
760.841	298.739
760.969	303.193
761.097	302.521
761.225	301.773
761.353	299.655
761.481	295.748
761.610	295.857
761.738	293.975
761.866	293.496
761.994	292.807
762.122	286.454
762.250	289.286
762.378	285.134
762.506	291.563
762.635	287.630
762.763	289.849
762.891	286.294
763.019	283.664
763.147	285.294
763.275	281.143
763.403	279.739
763.531	280.042
763.660	279.941
763.788	276.941
763.916	276.370
764.044	272.588
764.172	273.050
764.300	270.017
764.428	271.454
764.556	269.950
764.685	268.975
764.813	269.790
764.941	265.866
765.069	264.790
765.197	268.471
765.325	264.664
765.453	259.395
765.581	266.143
765.710	263.059
765.838	260.345
765.966	260.050
766.094	256.076
766.222	259.008
766.350	258.277
766.478	256.866
766.606	252.849
766.735	254.151
766.863	249.655
766.991	250.126
767.119	252.958
767.247	245.975
767.375	246.832
767.503	249.286
767.631	252.571
767.760	247.092
767.888	247.840
768.016	244.437
768.144	241.815
768.272	243.462
768.400	246.092
768.528	240.437
768.656	238.681
768.785	241.521
768.913	240.395
769.041	239.874
769.169	236.933
769.297	236.403
769.425	235.639
769.553	236.168
769.681	234.857
769.810	236.017
769.938	228.504
770.066	235.008
770.194	231.874
770.322	233.025
770.450	231.950
770.578	229.622
770.706	229.908
770.835	227.571
770.963	224.950
771.091	226.714
771.219	223.378
771.347	224.445
771.475	223.916
771.603	223.210
771.731	223.277
771.860	224.168
771.988	222.025
772.116	223.563
772.244	220.849
772.372	218.538
772.500	219.790
772.628	218.210
772.756	216.143
772.885	216.849
773.013	218.050
773.141	213.992
773.269	215.941
773.397	217.966
773.525	214.605
773.653	210.605
773.781	211.328
773.910	211.824
774.038	209.521
774.166	212.681
774.294	210.319
774.422	205.874
774.550	207.101
774.678	209.218
774.806	204.529
774.935	207.773
775.063	202.874
775.191	206.605
775.319	204.790
775.447	202.151
775.575	204.429
775.703	203.168
775.831	203.445
775.960	200.261
776.088	201.059
776.216	200.471
776.344	201.832
776.472	201.571
776.600	199.118
776.728	196.798
776.856	197.739
776.985	198.361
777.113	196.664
777.241	194.908
777.369	194.252
777.497	196.420
777.625	194.504
777.753	194.454
777.881	194.042
778.010	191.588
778.138	191.891
778.266	191.513
778.394	191.084
778.522	193.655
778.650	188.672
778.778	188.185
778.906	189.891
779.035	187.454
779.163	187.353
779.291	187.286
779.419	187.269
779.547	185.092
779.675	187.689
779.803	184.025
779.931	184.866
780.060	184.277
780.188	183.824
780.316	180.000
780.444	182.655
780.572	179.815
780.700	182.479
780.828	180.513
780.956	180.252
781.085	177.319
781.213	179.126
781.341	179.218
781.469	176.958
781.597	179.319
781.725	176.462
781.853	178.462
781.981	174.933
782.110	178.176
782.238	175.126
782.366	175.840
782.494	173.891
782.622	176.630
782.750	172.513
782.878	173.773
783.006	171.479
783.135	174.084
783.263	172.613
783.391	171.319
783.519	171.580
783.647	171.487
783.775	169.168
783.903	169.513
784.031	167.630
784.160	168.513
784.288	167.076
784.416	168.429
784.544	166.975
784.672	166.916
784.800	165.933
784.928	165.378
785.056	164.101
785.185	164.521
785.313	163.975
785.441	162.924
785.569	164.092
785.697	163.227
785.825	163.025
785.953	162.294
786.081	161.790
786.210	163.084
786.338	162.513
786.466	160.546
786.594	160.437
786.722	158.134
786.850	157.454
786.978	157.454
787.106	160.471
787.235	155.008
787.363	158.580
787.491	156.739
787.619	158.134
787.747	157.017
787.875	155.706
788.003	154.496
788.131	153.941
788.260	154.950
788.388	157.697
788.516	152.445
788.644	156.126
788.772	152.151
788.900	153.857
789.028	153.748
789.156	152.874
789.285	150.882
789.413	151.118
789.541	152.336
789.669	150.815
789.797	150.387
789.925	151.866
790.053	150.874
790.181	149.723
790.310	149.782
790.438	148.445
790.566	148.462
790.694	148.353
790.822	147.824
790.950	148.983
791.078	148.017
791.206	145.916
791.335	146.933
791.463	146.840
791.591	146.966
791.719	146.160
791.847	144.933
791.975	145.605
792.103	144.050
792.231	144.235
792.360	142.479
792.488	143.412
792.616	147.622
792.744	145.933
792.872	143.966
793.000	141.950
793.128	143.445
793.256	142.807
793.385	142.395
793.513	142.782
793.641	143.655
793.769	140.941
793.897	140.950
794.025	142.151
794.153	141.471
794.281	141.151
794.410	138.798
794.538	141.185
794.666	142.244
794.794	137.908
794.922	139.571
795.050	138.622
795.178	137.824
795.306	135.092
795.435	137.252
795.563	136.529
795.691	135.899
795.819	136.210
795.947	136.092
796.075	136.361
796.203	137.529
796.331	135.655
796.460	134.933
796.588	135.521
796.716	134.622
796.844	135.748
796.972	137.286
797.100	134.235
797.228	133.706
797.356	136.681
797.485	133.966
797.613	134.202
797.741	134.378
797.869	135.538
797.997	133.143
798.125	134.361
798.253	133.185
798.381	132.000
798.510	130.319
798.638	131.824
798.766	132.504
798.894	132.378
799.022	131.311
799.150	130.202
799.278	130.647
799.406	132.588
799.535	131.765
799.663	131.765
799.791	130.630
799.919	131.521
800.047	130.597
800.175	130.286
800.303	129.798
800.431	129.714
800.560	129.874
800.688	127.706
800.816	128.202
800.944	128.109
801.072	130.765
801.200	129.597
801.328	128.017
801.456	129.017
801.585	128.387
801.713	128.319
801.841	128.815
801.969	129.269
802.097	127.731
802.225	127.840
802.353	129.739
802.481	126.681
802.610	127.924
802.738	126.605
802.866	127.849
802.994	126.471
803.122	126.706
803.250	128.496
803.378	125.487
803.506	126.118
803.635	126.891
803.763	125.622
803.891	126.193
804.019	126.101
804.147	126.126
804.275	124.328
804.403	124.832
804.531	124.958
804.660	124.059
804.788	125.176
804.916	123.773
805.044	124.403
805.172	123.782
805.300	123.336
805.428	124.210
805.556	122.739
805.685	124.983
805.813	123.252
805.941	122.765
806.069	123.714
806.197	124.202
806.325	123.303
806.453	123.597
806.581	122.210
806.710	123.017
806.838	121.874
806.966	122.891
807.094	122.681
807.222	121.454
807.350	122.151
807.478	122.454
807.606	120.076
807.735	120.958
807.863	122.076
807.991	121.345
808.119	120.345
808.247	122.084
808.375	122.109
808.503	120.370
808.631	121.613
808.760	122.353
808.888	119.639
809.016	121.017
809.144	121.387
809.272	120.857
809.400	121.269
809.528	119.916
809.656	118.849
809.785	119.387
809.913	118.941
810.041	119.445
810.169	119.580
810.297	119.336
810.425	119.487
810.553	117.950
810.681	119.563
810.810	119.370
810.938	119.580
811.066	117.941
811.194	119.706
811.322	117.882
811.450	118.218
811.578	119.176
811.706	119.286
811.835	118.378
811.963	117.420
812.091	119.076
812.219	118.387
812.347	117.210
812.475	117.899
812.603	119.950
812.731	115.403
812.860	118.210
812.988	116.706
813.116	116.891
813.244	116.765
813.372	117.857
813.500	117.513
813.628	117.613
813.756	115.176
813.885	115.992
814.013	116.118
814.141	116.479
814.269	115.706
814.397	116.655
814.525	116.437
814.653	116.908
814.781	116.067
814.910	115.252
815.038	116.126
815.166	116.580
815.294	116.445
815.422	115.630
815.550	116.008
815.678	113.866
815.806	114.672
815.935	115.252
816.063	115.916
816.191	115.588
816.319	114.269
816.447	116.261
816.575	115.101
816.703	113.983
816.831	116.076
816.960	116.647
817.088	115.311
817.216	114.941
817.344	113.840
817.472	114.731
817.600	114.765
817.728	114.765
817.856	115.866
817.985	112.765
818.113	113.748
818.241	114.361
818.369	113.118
818.497	114.303
818.625	113.420
818.753	113.202
818.881	115.168
819.010	113.874
819.138	113.361
819.266	114.017
819.394	113.294
819.522	112.605
819.650	113.059
819.778	112.790
819.906	112.420
820.035	112.681
820.163	112.815
820.291	110.454
820.419	112.227
820.547	113.328
820.675	110.899
820.803	112.765
820.931	113.588
821.060	110.697
821.188	112.529
821.316	111.387
821.444	112.882
821.572	112.790
821.700	112.462
821.828	112.479
821.956	112.412
822.085	111.840
822.213	112.563
822.341	111.252
822.469	110.361
822.597	110.731
822.725	111.437
822.853	113.025
822.981	110.924
823.110	111.429
823.238	110.714
823.366	112.378
823.494	111.084
823.622	110.521
823.750	110.941
823.878	109.891
824.006	112.832
824.135	111.395
824.263	112.118
824.391	111.555
824.519	110.966
824.647	111.210
824.775	111.269
824.903	112.580
825.031	112.303
825.160	111.706
825.288	109.227
825.416	111.160
825.544	111.622
825.672	110.983
825.800	110.420
825.928	111.227
826.056	111.227
826.185	111.151
826.313	110.487
826.441	109.941
826.569	109.630
826.697	110.538
826.825	110.361
826.953	111.176
827.081	109.571
827.210	109.748
827.338	109.403
827.466	108.622
827.594	109.672
827.722	110.353
827.850	109.655
827.978	108.454
828.106	110.034
828.235	110.681
828.363	109.395
828.491	109.672
828.619	110.168
828.747	110.832
828.875	109.277
829.003	110.807
829.131	109.857
829.260	110.588
829.388	110.294
829.516	109.950
829.644	109.941
829.772	109.840
829.900	108.824
830.028	109.899
830.156	110.000
830.285	109.193
830.413	108.403
830.541	108.655
830.669	109.109
830.797	109.639
830.925	108.950
831.053	109.387
831.181	108.815
831.310	108.790
831.438	108.958
831.566	108.782
831.694	108.513
831.822	107.933
831.950	108.613
832.078	108.697
832.206	108.042
832.335	108.529
832.463	109.479
832.591	109.185
832.719	108.765
832.847	108.168
832.975	107.966
833.103	109.429
833.231	107.815
833.360	108.941
833.488	108.210
833.616	108.143
833.744	107.084
833.872	108.689
834.000	109.328
834.128	109.017
834.256	107.924
834.385	108.210
834.513	109.345
834.641	107.109
834.769	106.706
834.897	108.261
835.025	106.496
835.153	106.563
835.281	107.496
835.410	108.420
835.538	108.261
835.666	108.454
835.794	107.798
835.922	109.034
836.050	107.664
836.178	108.034
836.306	107.849
836.435	107.227
836.563	107.664
836.691	107.975
836.819	109.034
836.947	107.571
837.075	107.235
837.203	106.597
837.331	107.681
837.460	107.664
837.588	108.286
837.716	108.689
837.844	107.513
837.972	107.790
838.100	107.924
838.228	107.597
838.356	106.756
838.485	104.899
838.613	106.756
838.741	106.958
838.869	107.613
838.997	108.370
839.125	105.210
839.253	106.109
839.381	108.118
839.510	107.042
839.638	106.336
839.766	106.790
839.894	106.739
840.022	107.958
840.150	107.303
840.278	107.244
840.406	107.941
840.535	107.790
840.663	106.151
840.791	106.168
840.919	107.588
841.047	106.941
841.175	106.782
841.303	107.765
841.431	107.034
841.560	107.319
841.688	106.395
841.816	105.882
841.944	106.328
842.072	106.185
842.200	106.454
842.328	107.882
842.456	106.420
842.585	107.319
842.713	107.210
842.841	107.319
842.969	107.025
843.097	107.168
843.225	105.874
843.353	105.950
843.481	105.664
843.610	106.555
843.738	105.681
843.866	105.655
