90-120-unpol_at_679.99nm_cut_at_1250.00Y_01.dat
24.01.2024
13:31:46
cut middle at Y: 1250.00
top cursor: 1310 down cursor: 1190 mean of: 120 lines , 2560 datapoints
wavelength(nm)	intensity[arb. units]
515.994	738.750
516.122	696.842
516.250	692.208
516.378	671.508
516.506	677.825
516.635	684.800
516.763	688.358
516.891	689.100
517.019	688.358
517.147	690.892
517.275	691.033
517.403	694.408
517.531	684.150
517.660	683.617
517.788	691.867
517.916	686.533
518.044	687.392
518.172	695.550
518.300	696.958
518.428	693.675
518.556	703.942
518.685	695.300
518.813	701.858
518.941	703.792
519.069	707.083
519.197	704.367
519.325	708.050
519.453	706.558
519.581	717.125
519.710	707.108
519.838	718.792
519.966	717.233
520.094	721.233
520.222	715.300
520.350	724.367
520.478	721.200
520.606	727.408
520.735	734.233
520.863	726.583
520.991	739.942
521.119	733.625
521.247	739.875
521.375	738.525
521.503	739.875
521.631	739.633
521.760	747.067
521.888	753.958
522.016	748.250
522.144	744.233
522.272	748.500
522.400	752.650
522.528	763.133
522.656	762.133
522.785	759.292
522.913	764.108
523.041	762.067
523.169	762.025
523.297	759.225
523.425	763.192
523.553	771.617
523.681	761.917
523.810	771.150
523.938	769.192
524.066	771.175
524.194	775.150
524.322	769.067
524.450	762.100
524.578	767.667
524.706	774.425
524.835	768.642
524.963	776.075
525.091	766.600
525.219	765.658
525.347	771.550
525.475	780.208
525.603	775.025
525.731	773.092
525.860	773.358
525.988	769.658
526.116	770.450
526.244	774.592
526.372	772.117
526.500	773.067
526.628	779.225
526.756	776.550
526.885	777.492
527.013	778.775
527.141	776.200
527.269	785.592
527.397	779.683
527.525	785.883
527.653	782.575
527.781	783.050
527.910	789.950
528.038	782.758
528.166	791.117
528.294	788.833
528.422	789.792
528.550	797.100
528.678	797.792
528.806	795.942
528.935	803.833
529.063	793.625
529.191	804.117
529.319	806.450
529.447	802.350
529.575	805.917
529.703	805.742
529.831	816.625
529.960	808.225
530.088	818.492
530.216	807.325
530.344	810.083
530.472	817.500
530.600	818.150
530.728	823.967
530.856	822.100
530.985	821.667
531.113	813.692
531.241	830.008
531.369	824.842
531.497	819.017
531.625	817.783
531.753	819.133
531.881	823.500
532.010	822.667
532.138	823.958
532.266	823.833
532.394	821.017
532.522	812.700
532.650	822.000
532.778	826.675
532.906	815.417
533.035	825.083
533.163	816.758
533.291	819.717
533.419	813.008
533.547	816.292
533.675	823.475
533.803	820.817
533.931	825.667
534.060	821.367
534.188	830.733
534.316	822.358
534.444	811.942
534.572	821.792
534.700	828.042
534.828	822.475
534.956	827.567
535.085	839.267
535.213	837.367
535.341	825.433
535.469	825.233
535.597	845.017
535.725	840.542
535.853	838.550
535.981	838.258
536.110	848.675
536.238	845.425
536.366	848.608
536.494	844.050
536.622	853.142
536.750	848.275
536.878	867.150
537.006	858.417
537.135	864.458
537.263	862.167
537.391	869.808
537.519	864.200
537.647	874.942
537.775	876.117
537.903	870.050
538.031	874.158
538.160	878.067
538.288	880.700
538.416	878.383
538.544	881.842
538.672	884.525
538.800	880.375
538.928	886.708
539.056	894.608
539.185	882.550
539.313	883.433
539.441	890.117
539.569	885.083
539.697	891.483
539.825	893.508
539.953	886.283
540.081	887.017
540.210	895.875
540.338	888.642
540.466	894.933
540.594	894.675
540.722	885.925
540.850	895.100
540.978	894.608
541.106	899.208
541.235	903.367
541.363	891.825
541.491	896.875
541.619	895.833
541.747	899.583
541.875	895.483
542.003	894.142
542.131	898.858
542.260	903.567
542.388	896.383
542.516	902.625
542.644	901.592
542.772	901.917
542.900	897.217
543.028	906.267
543.156	907.983
543.285	911.292
543.413	898.492
543.541	908.433
543.669	910.642
543.797	906.367
543.925	903.117
544.053	908.900
544.181	902.775
544.310	907.767
544.438	906.408
544.566	913.075
544.694	913.133
544.822	914.033
544.950	909.233
545.078	913.817
545.206	910.083
545.335	912.075
545.463	909.625
545.591	914.433
545.719	910.917
545.847	905.842
545.975	915.400
546.103	911.492
546.231	916.925
546.360	916.092
546.488	924.817
546.616	921.117
546.744	918.442
546.872	913.833
547.000	915.258
547.128	920.275
547.256	922.042
547.385	919.833
547.513	922.483
547.641	923.133
547.769	930.200
547.897	923.392
548.025	924.508
548.153	930.450
548.281	922.817
548.410	925.683
548.538	925.008
548.666	927.567
548.794	935.250
548.922	921.433
549.050	931.625
549.178	932.417
549.306	927.692
549.435	932.850
549.563	920.867
549.691	924.658
549.819	939.792
549.947	932.925
550.075	936.575
550.203	938.583
550.331	931.442
550.460	928.533
550.588	931.300
550.716	945.700
550.844	925.017
550.972	936.892
551.100	933.067
551.228	924.158
551.356	919.150
551.485	928.042
551.613	928.617
551.741	918.250
551.869	928.492
551.997	916.142
552.125	923.250
552.253	924.317
552.381	910.467
552.510	909.142
552.638	912.192
552.766	914.050
552.894	900.242
553.022	910.067
553.150	911.225
553.278	904.183
553.406	918.000
553.535	901.833
553.663	902.817
553.791	912.117
553.919	909.608
554.047	908.133
554.175	899.983
554.303	905.617
554.431	902.183
554.560	909.892
554.688	907.683
554.816	907.008
554.944	909.042
555.072	908.225
555.200	905.942
555.328	900.525
555.456	914.442
555.585	908.925
555.713	906.783
555.841	914.025
555.969	913.542
556.097	915.483
556.225	921.967
556.353	920.275
556.481	910.708
556.610	924.533
556.738	916.358
556.866	922.275
556.994	921.475
557.122	911.650
557.250	927.925
557.378	918.667
557.506	920.375
557.635	923.942
557.763	921.050
557.891	926.117
558.019	917.775
558.147	928.283
558.275	924.275
558.403	938.792
558.531	930.958
558.660	929.608
558.788	931.033
558.916	931.467
559.044	923.917
559.172	922.525
559.300	945.575
559.428	935.108
559.556	942.792
559.685	927.742
559.813	928.850
559.941	929.117
560.069	948.667
560.197	933.675
560.325	933.325
560.453	921.692
560.581	936.808
560.710	931.125
560.838	937.408
560.966	925.208
561.094	941.300
561.222	936.433
561.350	921.275
561.478	929.108
561.606	932.350
561.735	924.258
561.863	928.867
561.991	927.708
562.119	924.933
562.247	917.842
562.375	922.117
562.503	923.283
562.631	919.817
562.760	916.558
562.888	925.658
563.016	922.650
563.144	921.567
563.272	921.292
563.400	912.167
563.528	914.775
563.656	922.683
563.785	920.258
563.913	919.625
564.041	914.633
564.169	916.625
564.297	920.600
564.425	912.042
564.553	928.208
564.681	924.200
564.810	918.992
564.938	921.558
565.066	921.267
565.194	925.175
565.322	922.583
565.450	924.117
565.578	928.675
565.706	917.908
565.835	929.467
565.963	931.575
566.091	926.433
566.219	935.975
566.347	928.200
566.475	936.000
566.603	931.558
566.731	930.683
566.860	932.317
566.988	937.567
567.116	938.300
567.244	935.592
567.372	942.058
567.500	943.492
567.628	937.058
567.756	935.625
567.885	946.092
568.013	947.283
568.141	950.908
568.269	942.975
568.397	946.067
568.525	946.658
568.653	957.408
568.781	956.200
568.910	971.300
569.038	964.583
569.166	951.100
569.294	956.242
569.422	961.408
569.550	955.550
569.678	957.417
569.806	960.167
569.935	958.708
570.063	965.767
570.191	971.058
570.319	970.475
570.447	971.117
570.575	968.392
570.703	975.758
570.831	975.517
570.960	968.567
571.088	970.233
571.216	972.533
571.344	974.658
571.472	980.000
571.600	980.608
571.728	973.558
571.856	978.283
571.985	984.158
572.113	983.533
572.241	979.900
572.369	988.400
572.497	982.733
572.625	997.533
572.753	977.033
572.881	992.917
573.010	995.042
573.138	1003.967
573.266	996.592
573.394	991.992
573.522	995.542
573.650	1003.375
573.778	995.600
573.906	992.333
574.035	995.217
574.163	994.142
574.291	986.700
574.419	996.792
574.547	998.667
574.675	995.892
574.803	991.775
574.931	991.158
575.060	1000.833
575.188	997.292
575.316	997.750
575.444	995.542
575.572	1008.517
575.700	988.800
575.828	997.875
575.956	999.075
576.085	989.875
576.213	996.033
576.341	986.142
576.469	985.942
576.597	986.042
576.725	991.842
576.853	984.592
576.981	990.217
577.110	989.575
577.238	999.000
577.366	982.808
577.494	978.875
577.622	977.383
577.750	991.658
577.878	987.733
578.006	999.758
578.135	992.875
578.263	986.508
578.391	989.800
578.519	992.792
578.647	994.325
578.775	982.500
578.903	988.925
579.031	994.100
579.160	985.092
579.288	983.508
579.416	979.300
579.544	987.167
579.672	994.208
579.800	990.142
579.928	986.233
580.056	973.433
580.185	979.167
580.313	986.075
580.441	994.725
580.569	987.225
580.697	982.133
580.825	989.750
580.953	987.192
581.081	992.025
581.210	988.525
581.338	999.592
581.466	994.242
581.594	1003.158
581.722	994.850
581.850	991.283
581.978	996.583
582.106	999.508
582.235	1009.667
582.363	996.383
582.491	1001.150
582.619	1001.858
582.747	1007.425
582.875	1011.100
583.003	1016.458
583.131	1015.392
583.260	1010.708
583.388	1024.358
583.516	1014.475
583.644	1016.608
583.772	1029.275
583.900	1034.417
584.028	1037.992
584.156	1022.708
584.285	1037.508
584.413	1032.700
584.541	1041.017
584.669	1043.342
584.797	1037.500
584.925	1041.625
585.053	1048.033
585.181	1051.983
585.310	1051.525
585.438	1047.617
585.566	1046.725
585.694	1049.942
585.822	1066.758
585.950	1058.075
586.078	1062.817
586.206	1070.442
586.335	1067.375
586.463	1069.833
586.591	1071.383
586.719	1072.883
586.847	1071.675
586.975	1072.108
587.103	1070.783
587.231	1070.125
587.360	1085.858
587.488	1079.258
587.616	1072.367
587.744	1087.258
587.872	1079.925
588.000	1084.183
588.128	1083.175
588.256	1079.292
588.385	1073.833
588.513	1082.933
588.641	1084.817
588.769	1094.783
588.897	1087.717
589.025	1080.783
589.153	1079.900
589.281	1079.108
589.410	1084.550
589.538	1078.550
589.666	1078.675
589.794	1081.000
589.922	1093.008
590.050	1085.775
590.178	1076.592
590.306	1083.750
590.435	1082.158
590.563	1084.442
590.691	1083.608
590.819	1079.875
590.947	1091.400
591.075	1078.067
591.203	1075.550
591.331	1095.708
591.460	1093.467
591.588	1090.017
591.716	1097.967
591.844	1091.950
591.972	1104.100
592.100	1089.992
592.228	1089.758
592.356	1098.817
592.485	1090.650
592.613	1090.300
592.741	1092.475
592.869	1104.375
592.997	1099.067
593.125	1100.033
593.253	1106.575
593.381	1099.117
593.510	1108.767
593.638	1104.592
593.766	1106.150
593.894	1108.658
594.022	1110.267
594.150	1109.300
594.278	1119.050
594.406	1114.542
594.535	1113.808
594.663	1115.508
594.791	1119.433
594.919	1120.600
595.047	1124.450
595.175	1126.725
595.303	1122.392
595.431	1121.708
595.560	1140.725
595.688	1129.917
595.816	1118.058
595.944	1140.442
596.072	1143.092
596.200	1127.525
596.328	1133.417
596.456	1136.292
596.585	1143.108
596.713	1147.142
596.841	1141.725
596.969	1141.642
597.097	1143.250
597.225	1146.567
597.353	1149.917
597.481	1150.708
597.610	1149.867
597.738	1152.975
597.866	1141.658
597.994	1154.275
598.122	1160.300
598.250	1157.533
598.378	1145.008
598.506	1147.900
598.635	1154.300
598.763	1161.808
598.891	1160.108
599.019	1156.742
599.147	1150.408
599.275	1159.408
599.403	1157.592
599.531	1170.358
599.660	1161.367
599.788	1170.492
599.916	1161.117
600.044	1172.008
600.172	1167.017
600.300	1180.975
600.428	1174.558
600.556	1169.442
600.685	1169.125
600.813	1172.100
600.941	1190.833
601.069	1190.975
601.197	1190.425
601.325	1180.158
601.453	1191.617
601.581	1190.575
601.710	1191.433
601.838	1195.917
601.966	1204.042
602.094	1191.792
602.222	1191.075
602.350	1197.550
602.478	1198.967
602.606	1205.900
602.735	1190.983
602.863	1207.392
602.991	1211.758
603.119	1215.733
603.247	1208.558
603.375	1218.408
603.503	1221.183
603.631	1226.758
603.760	1220.083
603.888	1223.783
604.016	1232.750
604.144	1225.400
604.272	1230.817
604.400	1229.083
604.528	1219.733
604.656	1241.875
604.785	1241.792
604.913	1241.758
605.041	1255.783
605.169	1234.842
605.297	1245.792
605.425	1244.550
605.553	1248.333
605.681	1241.225
605.810	1248.342
605.938	1243.608
606.066	1248.642
606.194	1260.133
606.322	1245.367
606.450	1259.550
606.578	1255.608
606.706	1257.442
606.835	1260.175
606.963	1262.925
607.091	1255.817
607.219	1252.758
607.347	1257.733
607.475	1266.767
607.603	1274.350
607.731	1262.075
607.860	1260.025
607.988	1269.208
608.116	1256.925
608.244	1254.458
608.372	1260.725
608.500	1263.883
608.628	1264.775
608.756	1263.517
608.885	1265.517
609.013	1263.033
609.141	1262.942
609.269	1266.067
609.397	1254.433
609.525	1268.317
609.653	1262.100
609.781	1262.867
609.910	1247.183
610.038	1250.433
610.166	1264.008
610.294	1248.242
610.422	1263.767
610.550	1259.733
610.678	1252.142
610.806	1261.717
610.935	1268.517
611.063	1267.600
611.191	1257.075
611.319	1258.592
611.447	1249.733
611.575	1262.683
611.703	1251.650
611.831	1261.233
611.960	1254.158
612.088	1263.567
612.216	1261.917
612.344	1268.392
612.472	1258.825
612.600	1267.608
612.728	1248.558
612.856	1265.858
612.985	1255.100
613.113	1254.625
613.241	1264.150
613.369	1265.067
613.497	1265.825
613.625	1264.858
613.753	1256.300
613.881	1264.300
614.010	1261.333
614.138	1252.050
614.266	1257.625
614.394	1261.008
614.522	1258.292
614.650	1273.258
614.778	1271.742
614.906	1266.733
615.035	1262.767
615.163	1254.642
615.291	1268.808
615.419	1265.208
615.547	1258.733
615.675	1265.775
615.803	1267.792
615.931	1277.025
616.060	1286.717
616.188	1275.117
616.316	1271.642
616.444	1274.442
616.572	1273.442
616.700	1276.692
616.828	1281.958
616.956	1282.642
617.085	1303.833
617.213	1285.775
617.341	1281.808
617.469	1283.450
617.597	1288.633
617.725	1295.850
617.853	1291.517
617.981	1289.508
618.110	1300.917
618.238	1296.217
618.366	1310.667
618.494	1305.167
618.622	1314.083
618.750	1307.450
618.878	1314.183
619.006	1322.958
619.135	1314.583
619.263	1321.483
619.391	1315.892
619.519	1317.817
619.647	1335.375
619.775	1325.158
619.903	1330.892
620.031	1333.783
620.160	1330.683
620.288	1329.250
620.416	1341.517
620.544	1334.233
620.672	1336.533
620.800	1339.675
620.928	1349.458
621.056	1346.742
621.185	1345.967
621.313	1345.367
621.441	1363.267
621.569	1372.483
621.697	1352.625
621.825	1369.342
621.953	1361.267
622.081	1370.067
622.210	1370.133
622.338	1371.592
622.466	1363.625
622.594	1372.658
622.722	1369.458
622.850	1371.983
622.978	1369.908
623.106	1363.942
623.235	1380.025
623.363	1375.542
623.491	1377.875
623.619	1371.825
623.747	1375.275
623.875	1374.367
624.003	1370.817
624.131	1376.742
624.260	1363.825
624.388	1393.533
624.516	1381.475
624.644	1375.225
624.772	1377.558
624.900	1378.367
625.028	1370.000
625.156	1393.650
625.285	1379.008
625.413	1379.242
625.541	1385.600
625.669	1383.475
625.797	1374.758
625.925	1377.867
626.053	1375.267
626.181	1388.242
626.310	1385.583
626.438	1384.500
626.566	1385.992
626.694	1378.558
626.822	1385.658
626.950	1381.142
627.078	1384.667
627.206	1380.083
627.335	1392.392
627.463	1386.817
627.591	1392.817
627.719	1375.200
627.847	1386.992
627.975	1400.317
628.103	1377.725
628.231	1388.000
628.360	1381.367
628.488	1394.142
628.616	1379.892
628.744	1394.317
628.872	1391.067
629.000	1391.000
629.128	1391.892
629.256	1396.483
629.385	1387.300
629.513	1372.200
629.641	1390.417
629.769	1387.558
629.897	1384.667
630.025	1383.433
630.153	1394.275
630.281	1387.933
630.410	1387.608
630.538	1397.858
630.666	1399.667
630.794	1389.292
630.922	1391.575
631.050	1388.183
631.178	1386.142
631.306	1392.108
631.435	1393.542
631.563	1396.892
631.691	1378.442
631.819	1398.775
631.947	1400.342
632.075	1395.650
632.203	1399.600
632.331	1397.283
632.460	1383.858
632.588	1396.150
632.716	1397.267
632.844	1382.808
632.972	1393.025
633.100	1402.158
633.228	1394.392
633.356	1386.058
633.485	1390.333
633.613	1391.575
633.741	1387.950
633.869	1383.925
633.997	1389.300
634.125	1385.408
634.253	1378.292
634.381	1383.000
634.510	1388.658
634.638	1376.258
634.766	1384.183
634.894	1388.717
635.022	1383.042
635.150	1375.192
635.278	1400.525
635.406	1376.275
635.535	1382.667
635.663	1384.225
635.791	1374.900
635.919	1385.008
636.047	1373.317
636.175	1361.050
636.303	1385.992
636.431	1380.417
636.560	1377.925
636.688	1381.250
636.816	1381.125
636.944	1370.208
637.072	1379.683
637.200	1379.375
637.328	1376.800
637.456	1378.050
637.585	1379.500
637.713	1388.300
637.841	1373.542
637.969	1378.117
638.097	1368.425
638.225	1387.842
638.353	1386.800
638.481	1379.833
638.610	1388.692
638.738	1384.158
638.866	1382.183
638.994	1375.742
639.122	1382.533
639.250	1391.150
639.378	1392.083
639.506	1380.608
639.635	1391.258
639.763	1377.600
639.891	1390.558
640.019	1390.092
640.147	1387.600
640.275	1385.967
640.403	1376.925
640.531	1384.950
640.660	1386.250
640.788	1389.850
640.916	1383.050
641.044	1410.250
641.172	1388.675
641.300	1391.258
641.428	1400.150
641.556	1406.167
641.685	1393.583
641.813	1387.258
641.941	1398.517
642.069	1396.017
642.197	1393.808
642.325	1393.075
642.453	1399.575
642.581	1398.375
642.710	1393.625
642.838	1403.067
642.966	1403.400
643.094	1395.917
643.222	1397.742
643.350	1395.700
643.478	1406.317
643.606	1407.783
643.735	1402.575
643.863	1388.425
643.991	1404.667
644.119	1406.550
644.247	1409.150
644.375	1402.625
644.503	1412.333
644.631	1401.042
644.760	1417.892
644.888	1402.750
645.016	1412.092
645.144	1417.050
645.272	1403.833
645.400	1409.733
645.528	1404.850
645.656	1400.000
645.785	1398.000
645.913	1411.383
646.041	1411.725
646.169	1389.633
646.297	1397.575
646.425	1408.725
646.553	1396.767
646.681	1393.017
646.810	1387.575
646.938	1398.242
647.066	1395.842
647.194	1387.900
647.322	1390.242
647.450	1379.542
647.578	1397.875
647.706	1380.067
647.835	1391.542
647.963	1384.608
648.091	1389.900
648.219	1381.475
648.347	1385.742
648.475	1381.892
648.603	1379.375
648.731	1377.433
648.860	1369.542
648.988	1381.300
649.116	1382.292
649.244	1364.192
649.372	1360.517
649.500	1367.442
649.628	1373.325
649.756	1361.025
649.885	1352.475
650.013	1359.467
650.141	1346.133
650.269	1342.058
650.397	1346.683
650.525	1330.442
650.653	1344.042
650.781	1335.292
650.910	1327.942
651.038	1317.325
651.166	1329.467
651.294	1313.375
651.422	1320.217
651.550	1308.392
651.678	1305.575
651.806	1301.117
651.935	1312.442
652.063	1312.633
652.191	1304.025
652.319	1309.100
652.447	1298.300
652.575	1305.125
652.703	1292.392
652.831	1294.150
652.960	1293.600
653.088	1286.292
653.216	1285.500
653.344	1294.267
653.472	1293.758
653.600	1288.583
653.728	1283.183
653.856	1278.642
653.985	1284.575
654.113	1289.525
654.241	1296.875
654.369	1280.458
654.497	1288.350
654.625	1278.142
654.753	1278.217
654.881	1277.033
655.010	1277.200
655.138	1271.433
655.266	1273.017
655.394	1270.633
655.522	1263.925
655.650	1258.017
655.778	1266.558
655.906	1270.725
656.035	1266.625
656.163	1267.217
656.291	1263.575
656.419	1270.850
656.547	1265.950
656.675	1246.933
656.803	1264.375
656.931	1250.783
657.060	1260.492
657.188	1261.083
657.316	1261.592
657.444	1252.117
657.572	1256.150
657.700	1252.708
657.828	1253.817
657.956	1245.100
658.085	1267.375
658.213	1246.483
658.341	1251.367
658.469	1240.192
658.597	1243.708
658.725	1249.808
658.853	1233.450
658.981	1242.617
659.110	1247.092
659.238	1236.808
659.366	1242.075
659.494	1235.667
659.622	1233.833
659.750	1242.067
659.878	1238.775
660.006	1234.100
660.135	1236.800
660.263	1236.550
660.391	1228.050
660.519	1226.758
660.647	1225.908
660.775	1230.708
660.903	1218.617
661.031	1227.383
661.160	1216.533
661.288	1229.042
661.416	1227.808
661.544	1225.917
661.672	1218.875
661.800	1222.783
661.928	1218.317
662.056	1212.542
662.185	1213.900
662.313	1202.083
662.441	1213.883
662.569	1220.983
662.697	1211.808
662.825	1220.933
662.953	1211.275
663.081	1202.842
663.210	1204.867
663.338	1218.692
663.466	1205.458
663.594	1193.283
663.722	1194.633
663.850	1188.542
663.978	1186.192
664.106	1198.842
664.235	1201.825
664.363	1209.200
664.491	1184.392
664.619	1199.000
664.747	1197.942
664.875	1192.167
665.003	1183.408
665.131	1200.733
665.260	1188.033
665.388	1175.250
665.516	1177.658
665.644	1176.758
665.772	1178.558
665.900	1185.142
666.028	1183.375
666.156	1181.783
666.285	1177.300
666.413	1187.750
666.541	1173.550
666.669	1177.925
666.797	1170.483
666.925	1171.133
667.053	1174.083
667.181	1162.275
667.310	1157.475
667.438	1162.708
667.566	1164.933
667.694	1161.625
667.822	1161.900
667.950	1166.400
668.078	1150.533
668.206	1154.325
668.335	1162.275
668.463	1155.675
668.591	1150.275
668.719	1152.658
668.847	1147.933
668.975	1142.367
669.103	1151.550
669.231	1162.575
669.360	1155.250
669.488	1153.300
669.616	1140.683
669.744	1146.058
669.872	1137.425
670.000	1163.617
670.128	1129.042
670.256	1137.117
670.385	1143.542
670.513	1142.250
670.641	1128.817
670.769	1130.125
670.897	1122.992
671.025	1131.050
671.153	1132.933
671.281	1137.467
671.410	1133.100
671.538	1127.633
671.666	1122.383
671.794	1118.225
671.922	1116.692
672.050	1113.992
672.178	1124.150
672.306	1102.300
672.435	1115.392
672.563	1114.175
672.691	1111.025
672.819	1111.017
672.947	1109.425
673.075	1093.417
673.203	1101.708
673.331	1097.033
673.460	1101.750
673.588	1087.458
673.716	1096.442
673.844	1086.308
673.972	1109.525
674.100	1097.975
674.228	1091.525
674.356	1082.675
674.485	1075.317
674.613	1070.883
674.741	1080.475
674.869	1079.408
674.997	1069.217
675.125	1066.667
675.253	1064.208
675.381	1062.125
675.510	1052.542
675.638	1054.242
675.766	1056.625
675.894	1056.217
676.022	1050.358
676.150	1051.933
676.278	1049.617
676.406	1055.200
676.535	1039.117
676.663	1035.933
676.791	1036.858
676.919	1032.683
677.047	1036.108
677.175	1019.375
677.303	1032.233
677.431	1019.400
677.560	1026.042
677.688	1017.467
677.816	1011.650
677.944	1013.408
678.072	1010.575
678.200	1010.250
678.328	1010.425
678.456	1004.875
678.585	1001.608
678.713	1001.275
678.841	995.825
678.969	996.908
679.097	997.167
679.225	998.892
679.353	989.742
679.481	980.583
679.610	995.517
679.738	979.908
679.866	982.717
679.994	982.625
680.122	983.467
680.250	971.300
680.378	980.308
680.506	977.292
680.635	972.325
680.763	976.825
680.891	957.225
681.019	964.592
681.147	960.933
681.275	956.592
681.403	957.783
681.531	966.533
681.660	958.542
681.788	945.008
681.916	948.575
682.044	955.542
682.172	940.067
682.300	937.925
682.428	942.633
682.556	944.675
682.685	951.275
682.813	942.958
682.941	934.658
683.069	935.083
683.197	941.275
683.325	935.100
683.453	937.142
683.581	928.208
683.710	922.808
683.838	929.308
683.966	931.583
684.094	930.358
684.222	937.967
684.350	925.192
684.478	926.408
684.606	924.617
684.735	915.400
684.863	921.250
684.991	916.967
685.119	915.075
685.247	908.283
685.375	907.817
685.503	912.917
685.631	925.033
685.760	912.650
685.888	913.933
686.016	908.092
686.144	902.333
686.272	897.208
686.400	906.883
686.528	906.867
686.656	908.358
686.785	898.767
686.913	896.217
687.041	899.250
687.169	897.083
687.297	904.283
687.425	888.908
687.553	898.375
687.681	894.958
687.810	897.683
687.938	885.008
688.066	896.108
688.194	892.583
688.322	886.733
688.450	886.583
688.578	897.208
688.706	891.442
688.835	879.233
688.963	890.092
689.091	888.075
689.219	884.483
689.347	870.192
689.475	882.650
689.603	870.808
689.731	878.392
689.860	881.000
689.988	879.783
690.116	880.025
690.244	875.883
690.372	878.133
690.500	868.375
690.628	863.867
690.756	871.742
690.885	866.592
691.013	861.742
691.141	866.908
691.269	866.492
691.397	861.717
691.525	862.708
691.653	858.300
691.781	862.400
691.910	862.250
692.038	852.867
692.166	847.667
692.294	848.283
692.422	850.933
692.550	847.392
692.678	850.917
692.806	841.500
692.935	849.842
693.063	835.583
693.191	840.125
693.319	840.133
693.447	836.483
693.575	829.208
693.703	830.867
693.831	825.633
693.960	825.483
694.088	828.333
694.216	823.642
694.344	813.158
694.472	822.000
694.600	817.800
694.728	815.225
694.856	815.450
694.985	820.158
695.113	811.567
695.241	803.892
695.369	804.083
695.497	811.375
695.625	812.817
695.753	807.308
695.881	802.483
696.010	793.092
696.138	796.575
696.266	792.458
696.394	794.375
696.522	787.825
696.650	784.325
696.778	786.267
696.906	785.658
697.035	773.183
697.163	778.808
697.291	780.950
697.419	772.133
697.547	773.867
697.675	768.908
697.803	766.875
697.931	770.083
698.060	765.892
698.188	757.392
698.316	760.950
698.444	759.817
698.572	749.892
698.700	766.133
698.828	751.792
698.956	752.933
699.085	745.992
699.213	746.067
699.341	742.950
699.469	744.125
699.597	747.408
699.725	745.617
699.853	746.283
699.981	742.625
700.110	728.967
700.238	739.242
700.366	734.375
700.494	726.992
700.622	726.492
700.750	721.625
700.878	725.633
701.006	719.050
701.135	723.367
701.263	719.492
701.391	714.917
701.519	720.517
701.647	709.383
701.775	723.075
701.903	711.658
702.031	715.517
702.160	709.425
702.288	708.975
702.416	709.225
702.544	703.267
702.672	706.858
702.800	698.100
702.928	701.708
703.056	703.275
703.185	696.858
703.313	698.292
703.441	693.808
703.569	689.192
703.697	701.900
703.825	690.158
703.953	694.725
704.081	689.125
704.210	685.083
704.338	688.050
704.466	676.167
704.594	683.283
704.722	680.442
704.850	677.617
704.978	685.867
705.106	673.450
705.235	673.883
705.363	669.275
705.491	674.275
705.619	668.400
705.747	666.883
705.875	662.275
706.003	661.542
706.131	666.358
706.260	662.600
706.388	661.408
706.516	654.792
706.644	660.967
706.772	650.483
706.900	647.767
707.028	644.650
707.156	641.883
707.285	649.308
707.413	647.000
707.541	636.283
707.669	637.667
707.797	639.433
707.925	640.917
708.053	634.783
708.181	630.992
708.310	631.867
708.438	629.042
708.566	626.642
708.694	629.092
708.822	623.208
708.950	624.883
709.078	614.833
709.206	612.883
709.335	616.958
709.463	614.158
709.591	609.158
709.719	602.942
709.847	607.375
709.975	601.725
710.103	602.050
710.231	605.242
710.360	594.317
710.488	594.025
710.616	595.167
710.744	594.150
710.872	587.958
711.000	587.558
711.128	582.558
711.256	585.583
711.385	586.342
711.513	584.708
711.641	581.892
711.769	578.042
711.897	583.533
712.025	573.075
712.153	573.708
712.281	577.850
712.410	575.750
712.538	574.658
712.666	571.575
712.794	566.692
712.922	567.708
713.050	563.208
713.178	564.933
713.306	561.400
713.435	563.017
713.563	563.483
713.691	560.283
713.819	560.725
713.947	548.592
714.075	557.367
714.203	561.142
714.331	556.958
714.460	551.292
714.588	549.408
714.716	545.842
714.844	546.717
714.972	540.950
715.100	538.217
715.228	548.050
715.356	543.383
715.485	546.283
715.613	540.467
715.741	533.042
715.869	537.800
715.997	530.533
716.125	530.100
716.253	536.017
716.381	529.250
716.510	532.675
716.638	534.767
716.766	530.192
716.894	529.333
717.022	520.217
717.150	523.392
717.278	524.717
717.406	520.750
717.535	523.567
717.663	523.908
717.791	523.450
717.919	516.308
718.047	512.433
718.175	514.975
718.303	520.150
718.431	512.042
718.560	506.858
718.688	509.575
718.816	509.158
718.944	507.675
719.072	510.900
719.200	507.683
719.328	498.658
719.456	504.258
719.585	501.283
719.713	499.317
719.841	498.167
719.969	496.400
720.097	496.242
720.225	497.467
720.353	494.717
720.481	495.417
720.610	494.592
720.738	489.367
720.866	493.117
720.994	487.525
721.122	486.925
721.250	485.542
721.378	482.425
721.506	483.433
721.635	482.583
721.763	485.042
721.891	481.808
722.019	480.042
722.147	472.667
722.275	472.217
722.403	468.450
722.531	471.458
722.660	472.708
722.788	468.458
722.916	463.200
723.044	461.275
723.172	465.700
723.300	465.250
723.428	463.333
723.556	466.008
723.685	459.925
723.813	462.433
723.941	453.725
724.069	458.675
724.197	453.108
724.325	452.558
724.453	453.058
724.581	449.383
724.710	450.233
724.838	447.517
724.966	445.767
725.094	444.425
725.222	440.633
725.350	439.617
725.478	442.300
725.606	440.575
725.735	435.850
725.863	436.467
725.991	431.558
726.119	431.208
726.247	427.525
726.375	431.275
726.503	426.358
726.631	426.592
726.760	424.300
726.888	426.258
727.016	420.775
727.144	419.942
727.272	423.592
727.400	418.317
727.528	415.608
727.656	414.575
727.785	413.225
727.913	415.400
728.041	410.708
728.169	419.758
728.297	411.342
728.425	408.908
728.553	409.333
728.681	408.467
728.810	406.375
728.938	399.342
729.066	403.592
729.194	399.217
729.322	395.983
729.450	396.667
729.578	398.708
729.706	393.192
729.835	400.633
729.963	397.850
730.091	394.800
730.219	394.217
730.347	392.733
730.475	387.733
730.603	386.417
730.731	388.383
730.860	387.942
730.988	387.750
731.116	385.925
731.244	382.592
731.372	387.325
731.500	380.017
731.628	382.650
731.756	376.067
731.885	379.642
732.013	380.142
732.141	373.167
732.269	375.167
732.397	377.025
732.525	373.800
732.653	372.200
732.781	370.183
732.910	368.017
733.038	374.425
733.166	368.508
733.294	373.283
733.422	368.400
733.550	369.458
733.678	367.767
733.806	367.717
733.935	365.167
734.063	365.742
734.191	363.908
734.319	359.633
734.447	361.308
734.575	360.975
734.703	358.100
734.831	356.342
734.960	353.758
735.088	357.842
735.216	354.850
735.344	350.342
735.472	357.800
735.600	353.358
735.728	355.008
735.856	348.492
735.985	351.958
736.113	352.925
736.241	350.142
736.369	350.508
736.497	347.017
736.625	348.233
736.753	349.100
736.881	344.033
737.010	343.042
737.138	342.408
737.266	343.900
737.394	343.758
737.522	340.425
737.650	341.325
737.778	338.958
737.906	340.508
738.035	339.642
738.163	338.125
738.291	336.108
738.419	335.208
738.547	335.867
738.675	337.775
738.803	332.100
738.931	334.842
739.060	331.567
739.188	329.692
739.316	332.650
739.444	328.350
739.572	331.500
739.700	327.100
739.828	324.200
739.956	328.433
740.085	328.025
740.213	326.117
740.341	318.283
740.469	325.983
740.597	326.825
740.725	321.417
740.853	323.008
740.981	322.342
741.110	318.192
741.238	321.067
741.366	319.258
741.494	322.833
741.622	315.658
741.750	319.800
741.878	318.792
742.006	316.033
742.135	313.408
742.263	318.358
742.391	306.542
742.519	317.950
742.647	313.633
742.775	315.000
742.903	312.733
743.031	311.600
743.160	310.033
743.288	309.108
743.416	307.600
743.544	310.017
743.672	309.950
743.800	307.917
743.928	305.442
744.056	309.117
744.185	308.108
744.313	305.425
744.441	302.292
744.569	302.517
744.697	300.558
744.825	305.658
744.953	301.067
745.081	300.350
745.210	299.033
745.338	301.900
745.466	297.325
745.594	295.100
745.722	297.692
745.850	293.825
745.978	294.925
746.106	297.417
746.235	289.742
746.363	293.108
746.491	297.025
746.619	294.133
746.747	292.392
746.875	290.050
747.003	292.692
747.131	290.867
747.260	287.508
747.388	286.425
747.516	286.792
747.644	291.225
747.772	288.983
747.900	289.200
748.028	281.658
748.156	280.350
748.285	285.833
748.413	283.892
748.541	281.208
748.669	281.942
748.797	281.392
748.925	279.725
749.053	281.850
749.181	279.092
749.310	277.125
749.438	276.217
749.566	278.858
749.694	274.608
749.822	275.092
749.950	275.517
750.078	271.192
750.206	270.750
750.335	273.700
750.463	273.325
750.591	268.167
750.719	274.067
750.847	268.058
750.975	267.458
751.103	265.383
751.231	266.592
751.360	266.033
751.488	265.325
751.616	260.808
751.744	265.267
751.872	262.325
752.000	266.958
752.128	262.825
752.256	263.442
752.385	261.425
752.513	258.533
752.641	257.975
752.769	263.050
752.897	257.833
753.025	254.908
753.153	256.767
753.281	257.475
753.410	256.767
753.538	256.342
753.666	256.508
753.794	253.717
753.922	252.308
754.050	255.592
754.178	253.983
754.306	249.658
754.435	249.617
754.563	250.800
754.691	251.967
754.819	248.625
754.947	248.642
755.075	248.042
755.203	248.383
755.331	245.975
755.460	244.233
755.588	244.850
755.716	243.275
755.844	240.400
755.972	242.175
756.100	245.467
756.228	244.467
756.356	241.208
756.485	240.742
756.613	245.192
756.741	240.458
756.869	244.117
756.997	243.042
757.125	239.650
757.253	240.033
757.381	238.092
757.510	239.867
757.638	234.533
757.766	236.550
757.894	236.700
758.022	239.683
758.150	233.892
758.278	238.675
758.406	231.758
758.535	237.550
758.663	235.367
758.791	232.283
758.919	233.417
759.047	232.533
759.175	233.633
759.303	233.850
759.431	231.608
759.560	233.783
759.688	228.242
759.816	232.183
759.944	227.675
760.072	227.800
760.200	225.950
760.328	231.167
760.456	228.550
760.585	227.525
760.713	226.300
760.841	225.783
760.969	228.975
761.097	224.608
761.225	226.808
761.353	227.100
761.481	223.833
761.610	222.800
761.738	220.892
761.866	221.558
761.994	224.683
762.122	221.558
762.250	222.842
762.378	220.100
762.506	218.750
762.635	220.367
762.763	219.683
762.891	220.258
763.019	218.967
763.147	219.317
763.275	221.875
763.403	217.650
763.531	218.517
763.660	216.433
763.788	216.658
763.916	219.058
764.044	215.850
764.172	216.192
764.300	214.142
764.428	214.017
764.556	215.758
764.685	213.233
764.813	214.008
764.941	210.608
765.069	212.300
765.197	211.008
765.325	207.225
765.453	212.000
765.581	212.692
765.710	208.250
765.838	210.492
765.966	210.600
766.094	212.142
766.222	209.358
766.350	207.242
766.478	209.950
766.606	207.033
766.735	211.350
766.863	206.233
766.991	206.458
767.119	208.258
767.247	202.075
767.375	206.167
767.503	206.408
767.631	207.133
767.760	206.933
767.888	203.558
768.016	205.225
768.144	204.017
768.272	201.667
768.400	205.275
768.528	200.408
768.656	203.933
768.785	200.808
768.913	202.308
769.041	201.050
769.169	200.525
769.297	200.942
769.425	199.542
769.553	203.800
769.681	198.233
769.810	200.892
769.938	198.800
770.066	199.508
770.194	199.100
770.322	198.817
770.450	198.633
770.578	198.508
770.706	197.583
770.835	194.092
770.963	196.417
771.091	195.758
771.219	196.633
771.347	195.775
771.475	197.808
771.603	194.858
771.731	194.450
771.860	194.367
771.988	196.758
772.116	196.308
772.244	195.817
772.372	191.467
772.500	193.950
772.628	194.075
772.756	192.083
772.885	191.792
773.013	193.492
773.141	189.175
773.269	192.200
773.397	191.150
773.525	190.283
773.653	191.683
773.781	191.208
773.910	189.950
774.038	189.283
774.166	190.300
774.294	188.217
774.422	188.292
774.550	189.017
774.678	186.708
774.806	187.858
774.935	187.658
775.063	184.975
775.191	188.317
775.319	187.150
775.447	184.700
775.575	184.058
775.703	184.792
775.831	184.650
775.960	182.125
776.088	184.808
776.216	184.050
776.344	183.333
776.472	184.767
776.600	182.817
776.728	182.542
776.856	182.308
776.985	181.383
777.113	181.117
777.241	180.767
777.369	181.808
777.497	180.808
777.625	180.675
777.753	180.342
777.881	178.858
778.010	178.267
778.138	178.742
778.266	179.167
778.394	178.625
778.522	179.242
778.650	179.683
778.778	176.217
778.906	178.525
779.035	178.475
779.163	175.983
779.291	177.525
779.419	177.250
779.547	178.242
779.675	176.408
779.803	174.583
779.931	175.942
780.060	177.917
780.188	172.625
780.316	174.192
780.444	176.083
780.572	172.475
780.700	174.892
780.828	174.633
780.956	172.833
781.085	171.825
781.213	171.175
781.341	173.025
781.469	172.517
781.597	170.150
781.725	170.758
781.853	171.042
781.981	169.192
782.110	170.675
782.238	167.867
782.366	171.933
782.494	165.567
782.622	168.508
782.750	167.967
782.878	167.025
783.006	170.558
783.135	169.200
783.263	166.275
783.391	168.275
783.519	165.533
783.647	166.842
783.775	164.450
783.903	166.308
784.031	163.783
784.160	163.425
784.288	164.633
784.416	162.675
784.544	160.533
784.672	165.100
784.800	162.425
784.928	163.917
785.056	164.808
785.185	162.567
785.313	162.758
785.441	161.025
785.569	162.142
785.697	163.558
785.825	163.500
785.953	159.533
786.081	161.242
786.210	160.542
786.338	160.017
786.466	157.633
786.594	157.575
786.722	160.408
786.850	159.150
786.978	156.158
787.106	157.925
787.235	156.167
787.363	159.825
787.491	158.642
787.619	155.875
787.747	157.950
787.875	155.883
788.003	155.317
788.131	155.742
788.260	154.492
788.388	154.908
788.516	156.075
788.644	156.075
788.772	153.550
788.900	153.408
789.028	152.575
789.156	151.867
789.285	152.558
789.413	149.600
789.541	153.642
789.669	149.425
789.797	150.125
789.925	151.000
790.053	152.442
790.181	152.067
790.310	153.133
790.438	152.167
790.566	149.642
790.694	149.808
790.822	148.842
790.950	148.142
791.078	149.625
791.206	147.775
791.335	149.058
791.463	151.167
791.591	147.133
791.719	150.433
791.847	148.875
791.975	145.292
792.103	145.250
792.231	149.158
792.360	145.950
792.488	147.042
792.616	148.192
792.744	147.767
792.872	144.375
793.000	147.958
793.128	146.550
793.256	146.808
793.385	143.983
793.513	144.950
793.641	146.417
793.769	147.183
793.897	143.092
794.025	145.425
794.153	144.650
794.281	146.642
794.410	142.175
794.538	146.242
794.666	143.567
794.794	144.317
794.922	146.250
795.050	144.125
795.178	142.742
795.306	139.408
795.435	142.167
795.563	140.317
795.691	139.292
795.819	139.075
795.947	141.717
796.075	141.975
796.203	140.050
796.331	140.833
796.460	140.067
796.588	140.667
796.716	138.367
796.844	139.658
796.972	139.975
797.100	138.583
797.228	140.725
797.356	140.633
797.485	139.183
797.613	139.808
797.741	140.725
797.869	139.167
797.997	138.500
798.125	137.217
798.253	139.592
798.381	137.425
798.510	137.275
798.638	136.117
798.766	138.700
798.894	135.758
799.022	135.475
799.150	137.067
799.278	135.433
799.406	138.458
799.535	137.717
799.663	136.317
799.791	134.833
799.919	135.842
800.047	134.908
800.175	135.692
800.303	135.858
800.431	134.892
800.560	138.117
800.688	133.192
800.816	135.042
800.944	133.192
801.072	134.650
801.200	134.350
801.328	135.108
801.456	135.783
801.585	134.450
801.713	133.542
801.841	135.175
801.969	133.292
802.097	136.708
802.225	133.700
802.353	134.167
802.481	132.750
802.610	134.092
802.738	133.983
802.866	133.292
802.994	130.825
803.122	132.258
803.250	132.925
803.378	131.825
803.506	133.892
803.635	132.550
803.763	133.367
803.891	132.158
804.019	129.542
804.147	132.542
804.275	131.108
804.403	130.325
804.531	131.392
804.660	128.567
804.788	128.633
804.916	129.050
805.044	130.292
805.172	129.983
805.300	129.458
805.428	129.342
805.556	131.175
805.685	130.792
805.813	130.492
805.941	128.608
806.069	128.825
806.197	131.675
806.325	127.567
806.453	128.100
806.581	129.933
806.710	128.475
806.838	126.650
806.966	128.667
807.094	128.483
807.222	128.175
807.350	126.275
807.478	126.158
807.606	128.033
807.735	126.442
807.863	127.458
807.991	127.058
808.119	126.350
808.247	127.950
808.375	125.817
808.503	127.692
808.631	125.350
808.760	125.492
808.888	125.375
809.016	126.775
809.144	127.000
809.272	126.492
809.400	128.942
809.528	125.633
809.656	124.725
809.785	125.733
809.913	126.133
810.041	125.792
810.169	123.667
810.297	123.375
810.425	125.075
810.553	123.233
810.681	125.150
810.810	122.242
810.938	125.642
811.066	122.833
811.194	123.025
811.322	124.267
811.450	125.933
811.578	124.675
811.706	123.483
811.835	123.100
811.963	123.642
812.091	124.833
812.219	123.567
812.347	122.917
812.475	122.200
812.603	122.525
812.731	121.792
812.860	122.567
812.988	123.667
813.116	121.642
813.244	121.600
813.372	123.542
813.500	122.867
813.628	121.733
813.756	120.475
813.885	121.842
814.013	122.142
814.141	121.833
814.269	120.208
814.397	122.050
814.525	120.608
814.653	122.167
814.781	119.633
814.910	121.225
815.038	121.733
815.166	121.750
815.294	120.733
815.422	121.283
815.550	120.125
815.678	119.492
815.806	120.658
815.935	119.542
816.063	119.625
816.191	120.558
816.319	120.042
816.447	119.192
816.575	120.392
816.703	118.683
816.831	119.858
816.960	120.058
817.088	119.967
817.216	119.267
817.344	118.792
817.472	120.300
817.600	118.067
817.728	118.483
817.856	118.942
817.985	117.875
818.113	118.433
818.241	118.425
818.369	116.817
818.497	119.600
818.625	117.908
818.753	117.333
818.881	118.142
819.010	117.525
819.138	118.108
819.266	117.775
819.394	117.358
819.522	115.533
819.650	117.667
819.778	116.292
819.906	116.317
820.035	118.617
820.163	117.858
820.291	116.175
820.419	116.933
820.547	118.133
820.675	115.192
820.803	115.675
820.931	117.842
821.060	114.892
821.188	117.050
821.316	115.558
821.444	118.283
821.572	116.192
821.700	116.133
821.828	116.517
821.956	115.575
822.085	116.925
822.213	117.500
822.341	115.967
822.469	116.942
822.597	114.575
822.725	115.075
822.853	115.575
822.981	115.100
823.110	115.750
823.238	113.883
823.366	114.942
823.494	113.183
823.622	114.858
823.750	115.292
823.878	113.467
824.006	115.475
824.135	114.217
824.263	115.883
824.391	114.233
824.519	116.108
824.647	116.225
824.775	114.758
824.903	116.317
825.031	115.117
825.160	114.758
825.288	114.575
825.416	114.408
825.544	115.083
825.672	115.167
825.800	114.308
825.928	114.817
826.056	114.508
826.185	113.733
826.313	113.983
826.441	112.267
826.569	113.058
826.697	113.975
826.825	113.467
826.953	113.208
827.081	111.792
827.210	112.075
827.338	113.017
827.466	112.217
827.594	114.200
827.722	112.925
827.850	112.058
827.978	112.817
828.106	113.350
828.235	113.950
828.363	113.525
828.491	112.775
828.619	111.150
828.747	112.525
828.875	111.933
829.003	112.683
829.131	114.083
829.260	113.525
829.388	113.300
829.516	114.342
829.644	112.075
829.772	112.375
829.900	111.817
830.028	112.225
830.156	111.900
830.285	113.383
830.413	113.350
830.541	112.767
830.669	111.758
830.797	111.892
830.925	111.308
831.053	111.417
831.181	111.108
831.310	111.767
831.438	111.233
831.566	112.592
831.694	111.333
831.822	109.550
831.950	111.067
832.078	111.717
832.206	110.925
832.335	110.575
832.463	111.642
832.591	111.258
832.719	111.550
832.847	111.625
832.975	109.758
833.103	110.758
833.231	110.833
833.360	110.683
833.488	109.775
833.616	110.067
833.744	109.350
833.872	110.875
834.000	111.583
834.128	112.075
834.256	111.508
834.385	110.342
834.513	110.292
834.641	109.108
834.769	110.483
834.897	110.208
835.025	109.342
835.153	108.067
835.281	109.592
835.410	110.633
835.538	110.300
835.666	109.667
835.794	109.242
835.922	110.517
836.050	110.458
836.178	110.367
836.306	109.825
836.435	109.917
836.563	110.717
836.691	110.433
836.819	110.758
836.947	108.308
837.075	111.283
837.203	109.017
837.331	109.350
837.460	109.525
837.588	109.550
837.716	109.233
837.844	110.308
837.972	109.392
838.100	109.050
838.228	109.675
838.356	109.308
838.485	108.233
838.613	108.767
838.741	109.642
838.869	109.317
838.997	108.650
839.125	107.825
839.253	108.592
839.381	108.792
839.510	109.025
839.638	109.000
839.766	108.400
839.894	109.233
840.022	109.050
840.150	109.258
840.278	108.275
840.406	107.675
840.535	108.633
840.663	107.583
840.791	109.208
840.919	108.317
841.047	107.842
841.175	107.917
841.303	108.392
841.431	108.917
841.560	107.867
841.688	107.950
841.816	107.975
841.944	107.883
842.072	108.117
842.200	108.275
842.328	109.408
842.456	107.283
842.585	109.308
842.713	109.017
842.841	107.333
842.969	108.483
843.097	108.583
843.225	108.342
843.353	106.942
843.481	107.000
843.610	108.100
843.738	107.108
843.866	107.825
