90-140-0_at_679.99nm_cut_at_1253.50Y_01.dat
24.01.2024
13:33:58
cut middle at Y: 1253.50
top cursor: 1317 down cursor: 1190 mean of: 127 lines , 2560 datapoints
wavelength(nm)	intensity[arb. units]
515.994	306.866
516.122	293.205
516.250	288.031
516.378	288.268
516.506	287.276
516.635	293.591
516.763	293.866
516.891	294.291
517.019	290.496
517.147	290.685
517.275	292.055
517.403	292.031
517.531	295.417
517.660	294.417
517.788	292.551
517.916	297.228
518.044	291.260
518.172	296.575
518.300	296.118
518.428	298.173
518.556	297.976
518.685	294.315
518.813	295.157
518.941	300.157
519.069	301.535
519.197	297.835
519.325	301.449
519.453	299.087
519.581	303.386
519.710	301.591
519.838	304.811
519.966	299.646
520.094	299.370
520.222	303.724
520.350	303.134
520.478	308.118
520.606	303.598
520.735	304.134
520.863	306.039
520.991	309.024
521.119	304.449
521.247	309.701
521.375	306.480
521.503	310.496
521.631	311.276
521.760	313.000
521.888	312.835
522.016	316.173
522.144	312.811
522.272	317.244
522.400	314.992
522.528	318.079
522.656	316.614
522.785	317.362
522.913	318.583
523.041	313.157
523.169	319.394
523.297	319.433
523.425	317.008
523.553	321.000
523.681	319.157
523.810	319.756
523.938	321.819
524.066	320.315
524.194	322.354
524.322	320.268
524.450	318.252
524.578	324.189
524.706	322.937
524.835	320.142
524.963	320.142
525.091	321.205
525.219	324.685
525.347	321.126
525.475	324.764
525.603	321.165
525.731	326.157
525.860	321.654
525.988	322.591
526.116	321.181
526.244	325.882
526.372	321.559
526.500	322.417
526.628	325.276
526.756	323.016
526.885	322.795
527.013	323.772
527.141	324.488
527.269	324.843
527.397	326.772
527.525	324.961
527.653	322.189
527.781	321.126
527.910	327.094
528.038	322.362
528.166	330.638
528.294	328.898
528.422	330.417
528.550	328.276
528.678	330.606
528.806	328.961
528.935	331.843
529.063	330.220
529.191	334.291
529.319	331.008
529.447	335.252
529.575	335.614
529.703	332.110
529.831	330.732
529.960	334.661
530.088	333.937
530.216	335.740
530.344	329.260
530.472	333.772
530.600	339.614
530.728	335.835
530.856	331.858
530.985	337.717
531.113	335.402
531.241	337.504
531.369	339.157
531.497	336.803
531.625	335.843
531.753	337.669
531.881	340.276
532.010	341.709
532.138	335.339
532.266	330.953
532.394	336.394
532.522	334.465
532.650	328.362
532.778	339.843
532.906	337.866
533.035	335.803
533.163	332.228
533.291	333.984
533.419	331.378
533.547	334.433
533.675	335.866
533.803	331.142
533.931	332.827
534.060	336.654
534.188	334.835
534.316	337.126
534.444	327.087
534.572	333.701
534.700	333.362
534.828	332.543
534.956	336.551
535.085	336.890
535.213	338.402
535.341	336.780
535.469	336.787
535.597	340.898
535.725	340.102
535.853	338.685
535.981	340.661
536.110	345.433
536.238	343.677
536.366	343.457
536.494	339.913
536.622	346.598
536.750	343.134
536.878	351.008
537.006	345.866
537.135	347.732
537.263	349.661
537.391	346.378
537.519	349.906
537.647	350.654
537.775	348.882
537.903	346.866
538.031	350.228
538.160	349.315
538.288	352.874
538.416	353.071
538.544	349.071
538.672	352.583
538.800	351.772
538.928	354.370
539.056	352.488
539.185	354.220
539.313	353.260
539.441	358.362
539.569	357.709
539.697	356.992
539.825	355.598
539.953	358.575
540.081	351.496
540.210	355.315
540.338	359.717
540.466	355.646
540.594	358.047
540.722	356.709
540.850	356.181
540.978	356.929
541.106	352.882
541.235	360.984
541.363	361.055
541.491	356.843
541.619	359.693
541.747	358.055
541.875	359.764
542.003	359.528
542.131	357.346
542.260	358.528
542.388	357.504
542.516	357.646
542.644	358.362
542.772	358.165
542.900	357.409
543.028	359.575
543.156	360.362
543.285	362.409
543.413	361.543
543.541	360.551
543.669	362.724
543.797	366.291
543.925	360.913
544.053	364.205
544.181	366.008
544.310	362.331
544.438	361.669
544.566	359.157
544.694	358.567
544.822	359.961
544.950	360.063
545.078	362.559
545.206	357.346
545.335	357.764
545.463	359.472
545.591	361.827
545.719	364.701
545.847	359.866
545.975	362.276
546.103	360.252
546.231	363.961
546.360	359.850
546.488	364.189
546.616	361.740
546.744	357.969
546.872	360.898
547.000	361.646
547.128	361.693
547.256	359.394
547.385	359.008
547.513	357.213
547.641	358.488
547.769	361.913
547.897	358.307
548.025	360.913
548.153	362.142
548.281	358.126
548.410	362.937
548.538	358.283
548.666	358.031
548.794	358.748
548.922	360.228
549.050	358.394
549.178	361.370
549.306	362.575
549.435	364.394
549.563	361.031
549.691	360.843
549.819	364.504
549.947	361.890
550.075	364.339
550.203	361.102
550.331	360.866
550.460	360.567
550.588	361.630
550.716	361.969
550.844	363.929
550.972	361.976
551.100	359.480
551.228	364.165
551.356	357.252
551.485	362.819
551.613	358.780
551.741	359.276
551.869	357.835
551.997	363.780
552.125	355.512
552.253	363.370
552.381	355.142
552.510	353.850
552.638	357.693
552.766	359.732
552.894	355.512
553.022	356.087
553.150	353.449
553.278	354.244
553.406	352.732
553.535	352.394
553.663	354.157
553.791	352.504
553.919	352.370
554.047	355.228
554.175	356.504
554.303	350.331
554.431	352.000
554.560	347.047
554.688	350.504
554.816	352.291
554.944	351.748
555.072	354.307
555.200	351.520
555.328	351.780
555.456	352.386
555.585	350.039
555.713	349.858
555.841	352.071
555.969	348.449
556.097	354.118
556.225	348.504
556.353	354.016
556.481	353.260
556.610	351.811
556.738	352.165
556.866	353.425
556.994	355.488
557.122	348.764
557.250	352.992
557.378	346.803
557.506	350.614
557.635	350.622
557.763	350.598
557.891	354.913
558.019	350.780
558.147	353.654
558.275	351.197
558.403	355.323
558.531	351.929
558.660	353.512
558.788	353.189
558.916	353.291
559.044	349.472
559.172	353.039
559.300	349.094
559.428	348.425
559.556	351.142
559.685	355.213
559.813	347.843
559.941	350.622
560.069	355.291
560.197	343.953
560.325	353.480
560.453	347.441
560.581	348.843
560.710	350.031
560.838	347.331
560.966	345.157
561.094	348.551
561.222	349.661
561.350	343.354
561.478	345.945
561.606	345.646
561.735	345.906
561.863	346.843
561.991	349.520
562.119	346.984
562.247	345.307
562.375	347.378
562.503	344.543
562.631	347.819
562.760	341.787
562.888	348.480
563.016	345.181
563.144	344.669
563.272	342.504
563.400	341.252
563.528	345.874
563.656	341.220
563.785	343.323
563.913	339.236
564.041	342.441
564.169	338.858
564.297	343.898
564.425	343.150
564.553	342.945
564.681	346.000
564.810	341.882
564.938	344.346
565.066	341.346
565.194	346.315
565.322	346.299
565.450	342.291
565.578	345.756
565.706	342.819
565.835	347.055
565.963	346.787
566.091	340.756
566.219	344.693
566.347	343.236
566.475	345.969
566.603	344.354
566.731	345.606
566.860	344.693
566.988	346.575
567.116	342.811
567.244	346.378
567.372	346.787
567.500	345.780
567.628	348.709
567.756	352.339
567.885	349.268
568.013	351.488
568.141	346.787
568.269	350.071
568.397	343.189
568.525	347.622
568.653	350.433
568.781	349.953
568.910	353.197
569.038	352.157
569.166	350.472
569.294	350.512
569.422	350.260
569.550	349.614
569.678	353.181
569.806	349.850
569.935	354.512
570.063	353.307
570.191	355.843
570.319	353.732
570.447	352.205
570.575	351.622
570.703	354.709
570.831	352.654
570.960	347.409
571.088	355.134
571.216	351.992
571.344	347.646
571.472	352.307
571.600	354.512
571.728	351.717
571.856	352.480
571.985	358.047
572.113	351.630
572.241	350.709
572.369	355.480
572.497	351.945
572.625	356.953
572.753	349.543
572.881	352.787
573.010	352.118
573.138	357.591
573.266	359.701
573.394	356.654
573.522	357.252
573.650	354.386
573.778	355.039
573.906	353.669
574.035	354.709
574.163	350.709
574.291	350.732
574.419	354.591
574.547	354.346
574.675	354.622
574.803	354.543
574.931	356.283
575.060	360.614
575.188	354.457
575.316	357.291
575.444	356.764
575.572	352.638
575.700	353.425
575.828	359.488
575.956	351.921
576.085	354.646
576.213	354.378
576.341	352.079
576.469	352.591
576.597	352.055
576.725	355.465
576.853	349.543
576.981	351.142
577.110	350.457
577.238	354.535
577.366	351.110
577.494	349.772
577.622	349.402
577.750	349.094
577.878	352.102
578.006	351.669
578.135	353.614
578.263	349.378
578.391	352.740
578.519	349.512
578.647	351.465
578.775	353.780
578.903	349.512
579.031	351.614
579.160	351.669
579.288	350.047
579.416	349.685
579.544	350.402
579.672	352.110
579.800	349.992
579.928	347.276
580.056	346.094
580.185	351.520
580.313	347.472
580.441	352.567
580.569	351.362
580.697	349.150
580.825	351.457
580.953	351.173
581.081	352.315
581.210	353.213
581.338	352.346
581.466	357.780
581.594	357.472
581.722	348.835
581.850	352.992
581.978	349.921
582.106	351.913
582.235	357.850
582.363	356.551
582.491	352.858
582.619	356.134
582.747	355.764
582.875	356.575
583.003	358.000
583.131	359.661
583.260	357.520
583.388	357.976
583.516	362.173
583.644	360.228
583.772	358.921
583.900	361.984
584.028	364.921
584.156	360.441
584.285	360.236
584.413	364.764
584.541	365.197
584.669	363.339
584.797	366.370
584.925	360.543
585.053	361.992
585.181	362.638
585.310	365.591
585.438	366.535
585.566	364.055
585.694	366.055
585.822	366.874
585.950	367.205
586.078	368.449
586.206	373.417
586.335	368.268
586.463	372.567
586.591	370.173
586.719	365.685
586.847	372.575
586.975	367.906
587.103	371.929
587.231	366.047
587.360	370.693
587.488	369.772
587.616	370.236
587.744	374.496
587.872	371.748
588.000	370.102
588.128	373.882
588.256	376.252
588.385	367.906
588.513	369.252
588.641	374.717
588.769	375.244
588.897	371.402
589.025	370.339
589.153	372.409
589.281	366.071
589.410	370.417
589.538	366.748
589.666	372.031
589.794	370.480
589.922	371.291
590.050	369.787
590.178	370.504
590.306	369.685
590.435	366.181
590.563	366.189
590.691	370.244
590.819	364.921
590.947	373.843
591.075	369.346
591.203	368.283
591.331	370.118
591.460	373.386
591.588	367.504
591.716	370.110
591.844	367.291
591.972	369.598
592.100	364.606
592.228	371.504
592.356	373.677
592.485	366.024
592.613	370.724
592.741	367.543
592.869	369.622
592.997	370.803
593.125	372.504
593.253	369.969
593.381	371.937
593.510	370.142
593.638	368.992
593.766	369.039
593.894	370.370
594.022	374.150
594.150	373.543
594.278	374.205
594.406	371.827
594.535	373.024
594.663	372.646
594.791	374.480
594.919	371.819
595.047	375.236
595.175	373.780
595.303	373.835
595.431	372.756
595.560	375.669
595.688	380.449
595.816	377.244
595.944	375.323
596.072	378.772
596.200	377.693
596.328	376.496
596.456	380.535
596.585	375.465
596.713	380.654
596.841	373.134
596.969	376.858
597.097	372.866
597.225	379.472
597.353	377.165
597.481	378.654
597.610	372.772
597.738	373.984
597.866	374.047
597.994	374.402
598.122	377.717
598.250	372.866
598.378	378.110
598.506	378.252
598.635	375.937
598.763	375.795
598.891	377.591
599.019	378.575
599.147	371.189
599.275	376.795
599.403	373.945
599.531	378.843
599.660	375.181
599.788	377.520
599.916	379.677
600.044	378.142
600.172	379.795
600.300	376.654
600.428	379.331
600.556	380.031
600.685	373.291
600.813	373.850
600.941	380.677
601.069	377.787
601.197	381.283
601.325	375.717
601.453	376.173
601.581	377.142
601.710	379.622
601.838	382.094
601.966	376.961
602.094	383.417
602.222	378.874
602.350	379.693
602.478	377.992
602.606	385.024
602.735	379.654
602.863	386.252
602.991	381.228
603.119	382.260
603.247	382.488
603.375	383.772
603.503	384.063
603.631	382.937
603.760	384.000
603.888	384.173
604.016	387.630
604.144	384.205
604.272	386.244
604.400	386.228
604.528	382.102
604.656	389.063
604.785	387.346
604.913	388.693
605.041	388.921
605.169	388.874
605.297	385.370
605.425	385.213
605.553	382.913
605.681	385.118
605.810	387.717
605.938	386.102
606.066	387.480
606.194	386.260
606.322	385.346
606.450	388.094
606.578	389.079
606.706	388.205
606.835	386.654
606.963	388.236
607.091	384.142
607.219	387.354
607.347	382.496
607.475	393.685
607.603	387.709
607.731	387.606
607.860	387.575
607.988	386.858
608.116	387.827
608.244	383.756
608.372	386.346
608.500	382.480
608.628	385.898
608.756	383.386
608.885	386.213
609.013	385.008
609.141	382.528
609.269	385.685
609.397	384.189
609.525	380.472
609.653	378.567
609.781	385.220
609.910	384.394
610.038	379.260
610.166	377.969
610.294	385.260
610.422	383.016
610.550	382.567
610.678	382.638
610.806	382.630
610.935	382.205
611.063	382.961
611.191	377.236
611.319	384.339
611.447	375.528
611.575	377.283
611.703	375.283
611.831	379.197
611.960	379.118
612.088	383.000
612.216	378.543
612.344	381.819
612.472	374.756
612.600	378.504
612.728	380.465
612.856	377.291
612.985	377.535
613.113	379.717
613.241	376.512
613.369	377.732
613.497	373.433
613.625	376.433
613.753	382.189
613.881	376.630
614.010	372.953
614.138	374.079
614.266	374.654
614.394	371.945
614.522	377.087
614.650	378.575
614.778	374.669
614.906	376.795
615.035	372.953
615.163	374.181
615.291	375.039
615.419	375.157
615.547	373.449
615.675	380.055
615.803	375.150
615.931	377.024
616.060	376.087
616.188	370.992
616.316	379.992
616.444	372.008
616.572	376.937
616.700	369.803
616.828	379.520
616.956	375.079
617.085	376.016
617.213	375.165
617.341	373.929
617.469	375.283
617.597	376.220
617.725	377.724
617.853	372.567
617.981	370.677
618.110	375.504
618.238	371.969
618.366	374.354
618.494	377.433
618.622	371.646
618.750	375.654
618.878	375.654
619.006	374.110
619.135	376.591
619.263	377.425
619.391	377.394
619.519	375.291
619.647	377.803
619.775	373.496
619.903	380.071
620.031	379.890
620.160	379.520
620.288	372.976
620.416	376.047
620.544	376.858
620.672	377.417
620.800	377.142
620.928	377.850
621.056	376.898
621.185	377.268
621.313	378.409
621.441	379.315
621.569	380.961
621.697	378.559
621.825	379.701
621.953	380.449
622.081	380.937
622.210	380.047
622.338	380.346
622.466	377.307
622.594	382.709
622.722	378.835
622.850	381.488
622.978	380.260
623.106	378.654
623.235	384.858
623.363	379.559
623.491	375.630
623.619	380.583
623.747	374.110
623.875	379.520
624.003	376.008
624.131	375.031
624.260	369.772
624.388	379.772
624.516	379.000
624.644	374.520
624.772	377.008
624.900	377.874
625.028	378.677
625.156	382.717
625.285	374.835
625.413	373.906
625.541	373.409
625.669	376.969
625.797	374.520
625.925	374.583
626.053	378.331
626.181	372.732
626.310	375.732
626.438	375.417
626.566	373.890
626.694	376.772
626.822	370.417
626.950	374.835
627.078	374.583
627.206	376.339
627.335	372.236
627.463	373.512
627.591	374.622
627.719	370.244
627.847	375.858
627.975	371.976
628.103	369.244
628.231	372.512
628.360	369.150
628.488	371.976
628.616	369.740
628.744	367.394
628.872	370.354
629.000	368.583
629.128	373.559
629.256	372.323
629.385	368.276
629.513	369.504
629.641	371.488
629.769	364.150
629.897	371.724
630.025	368.331
630.153	372.323
630.281	363.693
630.410	364.717
630.538	369.118
630.666	366.898
630.794	369.606
630.922	366.205
631.050	369.992
631.178	368.969
631.306	365.843
631.435	366.803
631.563	368.323
631.691	364.134
631.819	366.969
631.947	368.535
632.075	365.118
632.203	366.346
632.331	364.591
632.460	361.228
632.588	368.465
632.716	366.362
632.844	360.181
632.972	365.583
633.100	361.732
633.228	363.433
633.356	363.559
633.485	366.740
633.613	369.677
633.741	362.299
633.869	361.504
633.997	364.945
634.125	358.126
634.253	355.299
634.381	360.079
634.510	363.717
634.638	357.189
634.766	357.913
634.894	358.205
635.022	356.764
635.150	360.858
635.278	359.669
635.406	358.575
635.535	358.268
635.663	359.701
635.791	355.441
635.919	358.260
636.047	354.425
636.175	355.614
636.303	357.362
636.431	359.047
636.560	360.591
636.688	354.622
636.816	357.646
636.944	351.669
637.072	358.197
637.200	352.528
637.328	350.472
637.456	356.150
637.585	351.654
637.713	352.622
637.841	350.795
637.969	352.346
638.097	350.142
638.225	349.898
638.353	355.606
638.481	352.425
638.610	351.197
638.738	355.252
638.866	347.701
638.994	352.795
639.122	350.252
639.250	355.205
639.378	350.764
639.506	348.142
639.635	349.858
639.763	345.890
639.891	346.677
640.019	350.425
640.147	348.409
640.275	346.276
640.403	351.661
640.531	348.079
640.660	349.252
640.788	350.787
640.916	347.213
641.044	354.787
641.172	346.370
641.300	351.173
641.428	347.252
641.556	350.331
641.685	344.087
641.813	343.008
641.941	348.000
642.069	349.882
642.197	346.614
642.325	344.898
642.453	347.685
642.581	346.142
642.710	345.622
642.838	346.732
642.966	344.197
643.094	346.339
643.222	343.969
643.350	346.685
643.478	347.126
643.606	346.378
643.735	342.913
643.863	345.378
643.991	344.496
644.119	344.945
644.247	348.890
644.375	343.630
644.503	344.315
644.631	344.811
644.760	344.346
644.888	344.976
645.016	342.764
645.144	348.976
645.272	345.953
645.400	344.378
645.528	344.039
645.656	344.646
645.785	341.937
645.913	337.630
646.041	341.512
646.169	340.260
646.297	339.307
646.425	339.268
646.553	337.094
646.681	336.094
646.810	340.142
646.938	341.417
647.066	339.693
647.194	338.520
647.322	340.354
647.450	334.331
647.578	339.276
647.706	336.772
647.835	338.402
647.963	336.803
648.091	336.913
648.219	335.732
648.347	336.134
648.475	332.559
648.603	333.457
648.731	335.323
648.860	331.543
648.988	331.283
649.116	332.118
649.244	329.606
649.372	331.417
649.500	330.724
649.628	332.937
649.756	332.535
649.885	328.339
650.013	329.567
650.141	320.417
650.269	326.189
650.397	324.583
650.525	323.835
650.653	322.921
650.781	323.409
650.910	318.661
651.038	321.331
651.166	320.228
651.294	320.134
651.422	315.409
651.550	320.346
651.678	321.039
651.806	320.339
651.935	317.268
652.063	311.394
652.191	316.772
652.319	318.575
652.447	316.433
652.575	317.677
652.703	315.323
652.831	315.740
652.960	308.567
653.088	313.646
653.216	312.472
653.344	309.165
653.472	310.835
653.600	312.575
653.728	309.520
653.856	309.228
653.985	309.528
654.113	308.276
654.241	309.205
654.369	305.323
654.497	308.260
654.625	306.252
654.753	309.189
654.881	304.205
655.010	306.094
655.138	306.220
655.266	304.087
655.394	302.165
655.522	302.150
655.650	296.906
655.778	301.047
655.906	301.858
656.035	302.906
656.163	298.386
656.291	295.976
656.419	299.378
656.547	299.575
656.675	297.339
656.803	296.929
656.931	301.937
657.060	297.331
657.188	301.827
657.316	294.370
657.444	293.055
657.572	296.457
657.700	298.386
657.828	296.449
657.956	296.299
658.085	296.984
658.213	294.102
658.341	296.843
658.469	294.457
658.597	292.039
658.725	293.394
658.853	291.732
658.981	288.693
659.110	290.094
659.238	292.024
659.366	291.126
659.494	287.307
659.622	288.535
659.750	291.031
659.878	288.362
660.006	291.291
660.135	290.449
660.263	288.441
660.391	287.764
660.519	288.378
660.647	288.260
660.775	288.693
660.903	287.220
661.031	284.024
661.160	286.535
661.288	283.748
661.416	287.512
661.544	284.362
661.672	278.315
661.800	286.591
661.928	287.283
662.056	282.638
662.185	279.472
662.313	285.000
662.441	285.906
662.569	283.567
662.697	284.079
662.825	281.528
662.953	282.669
663.081	275.929
663.210	282.591
663.338	282.307
663.466	282.252
663.594	278.787
663.722	274.646
663.850	274.748
663.978	277.197
664.106	281.677
664.235	281.512
664.363	276.803
664.491	274.819
664.619	280.079
664.747	275.205
664.875	275.654
665.003	279.504
665.131	279.094
665.260	277.315
665.388	275.339
665.516	272.260
665.644	275.417
665.772	275.213
665.900	270.866
666.028	272.480
666.156	274.559
666.285	273.764
666.413	274.488
666.541	272.709
666.669	270.780
666.797	270.913
666.925	272.370
667.053	273.874
667.181	272.717
667.310	270.583
667.438	269.764
667.566	270.724
667.694	270.787
667.822	268.606
667.950	272.181
668.078	268.008
668.206	268.732
668.335	268.654
668.463	268.921
668.591	267.354
668.719	266.409
668.847	263.780
668.975	267.220
669.103	265.433
669.231	263.929
669.360	267.992
669.488	265.047
669.616	264.520
669.744	265.228
669.872	263.622
670.000	265.551
670.128	263.669
670.256	262.819
670.385	263.559
670.513	265.213
670.641	264.339
670.769	260.024
670.897	262.898
671.025	261.740
671.153	259.559
671.281	261.598
671.410	260.929
671.538	258.780
671.666	259.315
671.794	260.197
671.922	257.614
672.050	257.134
672.178	258.748
672.306	255.748
672.435	250.441
672.563	255.465
672.691	258.441
672.819	256.283
672.947	255.441
673.075	253.378
673.203	251.394
673.331	251.953
673.460	251.016
673.588	250.961
673.716	254.157
673.844	253.402
673.972	252.315
674.100	253.094
674.228	250.756
674.356	247.819
674.485	251.283
674.613	245.339
674.741	244.307
674.869	247.465
674.997	246.559
675.125	242.874
675.253	248.063
675.381	246.740
675.510	246.724
675.638	242.693
675.766	246.157
675.894	241.472
676.022	242.409
676.150	242.055
676.278	244.087
676.406	243.661
676.535	242.079
676.663	240.811
676.791	237.417
676.919	235.417
677.047	238.520
677.175	237.173
677.303	239.921
677.431	240.457
677.560	234.803
677.688	237.496
677.816	238.913
677.944	236.638
678.072	234.228
678.200	235.898
678.328	235.567
678.456	237.110
678.585	235.055
678.713	234.496
678.841	230.299
678.969	233.087
679.097	232.638
679.225	233.220
679.353	230.827
679.481	230.976
679.610	231.724
679.738	229.866
679.866	233.142
679.994	229.480
680.122	228.370
680.250	229.598
680.378	226.087
680.506	228.394
680.635	228.244
680.763	229.457
680.891	227.504
681.019	227.276
681.147	227.394
681.275	223.386
681.403	227.283
681.531	225.913
681.660	226.835
681.788	224.378
681.916	221.669
682.044	226.685
682.172	222.906
682.300	222.858
682.428	223.551
682.556	222.819
682.685	223.150
682.813	220.921
682.941	220.205
683.069	220.803
683.197	223.315
683.325	220.228
683.453	222.087
683.581	218.543
683.710	220.150
683.838	222.331
683.966	221.378
684.094	220.693
684.222	217.669
684.350	217.039
684.478	218.598
684.606	218.937
684.735	216.890
684.863	221.260
684.991	214.961
685.119	216.142
685.247	216.299
685.375	214.362
685.503	216.654
685.631	214.614
685.760	216.299
685.888	214.724
686.016	215.748
686.144	215.244
686.272	213.961
686.400	218.843
686.528	215.661
686.656	214.465
686.785	211.803
686.913	216.134
687.041	213.394
687.169	213.323
687.297	212.551
687.425	214.307
687.553	212.228
687.681	214.937
687.810	212.756
687.938	209.945
688.066	210.764
688.194	213.417
688.322	212.630
688.450	208.803
688.578	210.220
688.706	209.016
688.835	211.346
688.963	212.654
689.091	211.638
689.219	207.661
689.347	211.110
689.475	207.291
689.603	209.299
689.731	209.543
689.860	211.307
689.988	207.189
690.116	208.622
690.244	207.772
690.372	209.063
690.500	205.654
690.628	206.205
690.756	206.748
690.885	206.118
691.013	208.622
691.141	205.063
691.269	205.976
691.397	205.134
691.525	205.866
691.653	204.260
691.781	205.276
691.910	206.858
692.038	204.575
692.166	202.535
692.294	205.591
692.422	206.165
692.550	201.677
692.678	202.417
692.806	205.102
692.935	202.969
693.063	201.717
693.191	203.409
693.319	200.465
693.447	200.551
693.575	201.268
693.703	201.787
693.831	199.189
693.960	199.850
694.088	200.276
694.216	200.866
694.344	198.575
694.472	199.598
694.600	198.961
694.728	196.795
694.856	201.417
694.985	200.063
695.113	198.520
695.241	198.087
695.369	197.567
695.497	196.976
695.625	196.913
695.753	199.559
695.881	198.606
696.010	195.118
696.138	195.197
696.266	193.449
696.394	196.811
696.522	192.370
696.650	194.559
696.778	192.835
696.906	196.661
697.035	192.756
697.163	189.157
697.291	193.992
697.419	191.449
697.547	190.866
697.675	192.717
697.803	191.583
697.931	191.110
698.060	189.504
698.188	190.283
698.316	190.346
698.444	189.362
698.572	187.709
698.700	189.504
698.828	189.764
698.956	185.756
699.085	187.701
699.213	187.961
699.341	186.559
699.469	187.291
699.597	189.827
699.725	189.244
699.853	185.268
699.981	183.583
700.110	183.811
700.238	183.929
700.366	184.276
700.494	182.488
700.622	184.811
700.750	185.323
700.878	185.449
701.006	182.646
701.135	186.087
701.263	182.693
701.391	181.039
701.519	181.913
701.647	184.724
701.775	184.039
701.903	184.654
702.031	182.354
702.160	181.181
702.288	179.268
702.416	181.283
702.544	180.173
702.672	181.354
702.800	180.890
702.928	181.055
703.056	179.307
703.185	179.150
703.313	181.992
703.441	180.055
703.569	177.024
703.697	179.591
703.825	180.000
703.953	179.614
704.081	175.551
704.210	176.929
704.338	179.638
704.466	174.835
704.594	175.701
704.722	176.693
704.850	176.142
704.978	176.339
705.106	177.512
705.235	175.244
705.363	175.197
705.491	177.630
705.619	174.717
705.747	176.142
705.875	174.189
706.003	172.024
706.131	173.622
706.260	173.669
706.388	170.276
706.516	171.732
706.644	173.614
706.772	172.260
706.900	169.543
707.028	170.906
707.156	171.551
707.285	170.000
707.413	172.496
707.541	167.126
707.669	170.598
707.797	169.402
707.925	169.465
708.053	171.465
708.181	168.449
708.310	170.803
708.438	169.504
708.566	169.472
708.694	169.480
708.822	166.402
708.950	169.646
709.078	166.197
709.206	165.937
709.335	165.646
709.463	166.701
709.591	166.732
709.719	168.181
709.847	164.283
709.975	163.906
710.103	164.386
710.231	163.732
710.360	164.055
710.488	162.409
710.616	164.063
710.744	163.685
710.872	163.283
711.000	163.866
711.128	161.748
711.256	162.835
711.385	163.717
711.513	160.465
711.641	162.409
711.769	162.055
711.897	162.071
712.025	160.685
712.153	162.874
712.281	162.244
712.410	158.984
712.538	162.433
712.666	157.598
712.794	159.087
712.922	159.890
713.050	160.417
713.178	159.094
713.306	157.724
713.435	157.496
713.563	156.772
713.691	159.504
713.819	157.031
713.947	156.087
714.075	156.441
714.203	158.575
714.331	157.528
714.460	157.165
714.588	155.843
714.716	157.071
714.844	155.362
714.972	153.677
715.100	156.031
715.228	154.890
715.356	155.079
715.485	156.134
715.613	155.370
715.741	154.669
715.869	153.874
715.997	154.748
716.125	153.740
716.253	155.063
716.381	153.843
716.510	155.740
716.638	155.276
716.766	152.370
716.894	154.787
717.022	154.654
717.150	151.559
717.278	151.260
717.406	153.283
717.535	151.937
717.663	153.701
717.791	152.504
717.919	152.449
718.047	151.827
718.175	151.992
718.303	151.717
718.431	151.181
718.560	149.843
718.688	153.220
718.816	148.543
718.944	151.961
719.072	152.449
719.200	153.339
719.328	149.087
719.456	151.165
719.585	150.850
719.713	149.094
719.841	150.661
719.969	148.331
720.097	149.787
720.225	150.866
720.353	148.031
720.481	147.488
720.610	149.197
720.738	150.961
720.866	149.220
720.994	145.961
721.122	149.031
721.250	149.969
721.378	148.142
721.506	148.378
721.635	147.236
721.763	146.323
721.891	146.638
722.019	146.283
722.147	146.362
722.275	145.992
722.403	145.126
722.531	145.874
722.660	146.835
722.788	145.409
722.916	145.858
723.044	144.220
723.172	145.480
723.300	143.417
723.428	143.370
723.556	144.717
723.685	146.331
723.813	146.433
723.941	142.299
724.069	143.969
724.197	143.433
724.325	141.953
724.453	145.039
724.581	143.717
724.710	143.252
724.838	142.110
724.966	141.740
725.094	141.638
725.222	142.535
725.350	140.661
725.478	142.315
725.606	141.709
725.735	140.276
725.863	142.173
725.991	140.378
726.119	140.039
726.247	140.606
726.375	140.087
726.503	143.102
726.631	140.339
726.760	138.866
726.888	139.661
727.016	140.213
727.144	139.339
727.272	140.000
727.400	140.543
727.528	137.874
727.656	139.370
727.785	138.323
727.913	137.457
728.041	138.882
728.169	136.953
728.297	137.583
728.425	140.591
728.553	138.071
728.681	137.024
728.810	135.535
728.938	135.283
729.066	137.181
729.194	136.567
729.322	139.150
729.450	138.488
729.578	135.772
729.706	136.087
729.835	137.512
729.963	136.402
730.091	136.283
730.219	135.425
730.347	134.480
730.475	136.449
730.603	134.787
730.731	135.969
730.860	135.244
730.988	134.228
731.116	135.236
731.244	136.362
731.372	135.055
731.500	133.394
731.628	134.693
731.756	135.669
731.885	135.535
732.013	133.780
732.141	135.654
732.269	134.472
732.397	134.535
732.525	133.094
732.653	133.945
732.781	133.787
732.910	131.622
733.038	130.378
733.166	133.677
733.294	134.063
733.422	131.047
733.550	131.701
733.678	132.976
733.806	131.646
733.935	131.575
734.063	131.488
734.191	132.276
734.319	133.378
734.447	132.110
734.575	130.008
734.703	132.472
734.831	130.480
734.960	130.520
735.088	132.008
735.216	130.772
735.344	128.882
735.472	130.024
735.600	130.543
735.728	129.677
735.856	128.953
735.985	130.449
736.113	129.591
736.241	128.614
736.369	130.346
736.497	130.244
736.625	131.220
736.753	130.945
736.881	130.252
737.010	126.945
737.138	129.331
737.266	128.748
737.394	128.323
737.522	127.370
737.650	129.976
737.778	128.811
737.906	127.638
738.035	129.213
738.163	127.157
738.291	128.512
738.419	127.425
738.547	127.969
738.675	128.567
738.803	128.622
738.931	128.638
739.060	127.008
739.188	128.409
739.316	127.008
739.444	127.402
739.572	127.583
739.700	126.850
739.828	126.260
739.956	126.669
740.085	128.394
740.213	126.717
740.341	125.764
740.469	127.693
740.597	126.898
740.725	126.780
740.853	127.457
740.981	126.417
741.110	128.370
741.238	127.748
741.366	126.654
741.494	126.016
741.622	125.693
741.750	125.512
741.878	127.157
742.006	125.205
742.135	126.197
742.263	125.528
742.391	124.331
742.519	125.654
742.647	126.071
742.775	125.583
742.903	125.299
743.031	125.850
743.160	125.976
743.288	125.339
743.416	124.472
743.544	124.079
743.672	125.780
743.800	124.055
743.928	124.512
744.056	123.472
744.185	124.000
744.313	124.339
744.441	125.370
744.569	124.000
744.697	123.874
744.825	123.496
744.953	124.268
745.081	123.638
745.210	126.087
745.338	124.701
745.466	124.866
745.594	124.677
745.722	123.283
745.850	121.913
745.978	123.079
746.106	123.929
746.235	123.567
746.363	123.031
746.491	122.685
746.619	124.260
746.747	125.291
746.875	124.606
747.003	122.819
747.131	122.929
747.260	125.850
747.388	122.819
747.516	122.890
747.644	123.228
747.772	122.433
747.900	121.614
748.028	121.370
748.156	121.535
748.285	122.654
748.413	122.228
748.541	121.945
748.669	122.299
748.797	121.087
748.925	120.299
749.053	122.165
749.181	122.654
749.310	121.780
749.438	121.449
749.566	121.787
749.694	121.079
749.822	121.000
749.950	121.693
750.078	120.244
750.206	122.189
750.335	121.488
750.463	121.575
750.591	119.362
750.719	120.000
750.847	121.205
750.975	121.087
751.103	119.772
751.231	120.866
751.360	120.528
751.488	120.228
751.616	118.866
751.744	117.874
751.872	118.591
752.000	119.291
752.128	119.693
752.256	119.181
752.385	119.803
752.513	119.748
752.641	117.157
752.769	118.543
752.897	118.732
753.025	117.795
753.153	119.591
753.281	119.307
753.410	120.039
753.538	118.236
753.666	118.331
753.794	118.276
753.922	118.205
754.050	116.567
754.178	117.417
754.306	117.323
754.435	117.787
754.563	118.906
754.691	117.504
754.819	118.732
754.947	119.276
755.075	119.063
755.203	118.811
755.331	117.630
755.460	116.685
755.588	118.063
755.716	119.039
755.844	115.874
755.972	117.874
756.100	118.000
756.228	117.504
756.356	116.173
756.485	116.945
756.613	117.039
756.741	115.787
756.869	116.614
756.997	116.795
757.125	117.827
757.253	116.055
757.381	116.543
757.510	116.583
757.638	117.630
757.766	116.134
757.894	116.913
758.022	117.496
758.150	117.197
758.278	116.756
758.406	117.039
758.535	116.496
758.663	116.559
758.791	116.394
758.919	115.315
759.047	116.307
759.175	116.000
759.303	116.339
759.431	116.142
759.560	114.402
759.688	115.937
759.816	116.701
759.944	116.732
760.072	115.465
760.200	116.291
760.328	116.031
760.456	115.913
760.585	115.268
760.713	115.551
760.841	115.339
760.969	114.874
761.097	114.307
761.225	116.031
761.353	115.055
761.481	116.913
761.610	115.583
761.738	116.724
761.866	116.173
761.994	114.827
762.122	114.299
762.250	114.764
762.378	114.898
762.506	114.465
762.635	113.559
762.763	114.559
762.891	114.921
763.019	114.780
763.147	114.654
763.275	116.496
763.403	114.575
763.531	114.843
763.660	114.787
763.788	114.669
763.916	115.709
764.044	115.575
764.172	115.850
764.300	114.732
764.428	113.701
764.556	114.724
764.685	114.283
764.813	114.433
764.941	113.181
765.069	113.512
765.197	112.795
765.325	114.165
765.453	114.772
765.581	114.874
765.710	113.787
765.838	113.858
765.966	113.441
766.094	114.087
766.222	114.110
766.350	112.953
766.478	113.929
766.606	113.606
766.735	113.677
766.863	112.945
766.991	114.835
767.119	114.315
767.247	112.252
767.375	113.276
767.503	112.811
767.631	113.685
767.760	114.094
767.888	113.543
768.016	113.654
768.144	112.756
768.272	113.835
768.400	114.165
768.528	114.126
768.656	113.457
768.785	114.157
768.913	112.898
769.041	112.740
769.169	112.118
769.297	113.000
769.425	111.614
769.553	112.661
769.681	113.173
769.810	114.291
769.938	112.520
770.066	111.835
770.194	111.819
770.322	112.496
770.450	112.638
770.578	111.882
770.706	112.669
770.835	112.551
770.963	112.945
771.091	112.425
771.219	112.874
771.347	113.063
771.475	113.016
771.603	112.346
771.731	112.063
771.860	113.575
771.988	111.496
772.116	112.764
772.244	111.165
772.372	112.756
772.500	112.591
772.628	112.953
772.756	111.520
772.885	112.008
773.013	112.331
773.141	111.976
773.269	112.622
773.397	113.260
773.525	112.449
773.653	112.449
773.781	112.142
773.910	111.583
774.038	111.969
774.166	112.614
774.294	112.787
774.422	110.425
774.550	112.646
774.678	112.236
774.806	112.150
774.935	111.803
775.063	111.228
775.191	113.559
775.319	112.543
775.447	112.189
775.575	110.953
775.703	113.087
775.831	110.362
775.960	110.937
776.088	111.465
776.216	112.150
776.344	110.937
776.472	110.937
776.600	111.559
776.728	110.339
776.856	110.496
776.985	111.874
777.113	111.780
777.241	111.693
777.369	111.882
777.497	110.551
777.625	111.520
777.753	110.378
777.881	111.283
778.010	111.024
778.138	110.732
778.266	110.031
778.394	111.945
778.522	110.984
778.650	110.134
778.778	110.000
778.906	110.819
779.035	111.898
779.163	110.465
779.291	110.472
779.419	110.827
779.547	110.969
779.675	110.126
779.803	110.551
779.931	109.819
780.060	110.984
780.188	110.433
780.316	109.937
780.444	111.378
780.572	110.386
780.700	110.835
780.828	111.205
780.956	110.748
781.085	109.409
781.213	110.024
781.341	110.630
781.469	109.740
781.597	111.811
781.725	111.252
781.853	111.110
781.981	109.787
782.110	110.323
782.238	110.244
782.366	110.850
782.494	109.268
782.622	110.709
782.750	111.189
782.878	109.646
783.006	110.039
783.135	109.126
783.263	109.583
783.391	109.480
783.519	109.685
783.647	108.929
783.775	108.756
783.903	109.528
784.031	109.559
784.160	109.646
784.288	110.213
784.416	109.803
784.544	108.276
784.672	108.646
784.800	109.567
784.928	108.890
785.056	109.094
785.185	109.976
785.313	108.748
785.441	108.748
785.569	109.449
785.697	109.795
785.825	108.181
785.953	109.031
786.081	109.882
786.210	108.677
786.338	108.819
786.466	109.378
786.594	107.937
786.722	108.622
786.850	109.165
786.978	108.882
787.106	108.039
787.235	109.102
787.363	109.394
787.491	109.882
787.619	109.638
787.747	108.575
787.875	109.024
788.003	108.764
788.131	108.000
788.260	109.087
788.388	108.654
788.516	108.110
788.644	108.913
788.772	107.315
788.900	109.118
789.028	107.929
789.156	109.913
789.285	108.157
789.413	108.228
789.541	108.780
789.669	107.457
789.797	108.346
789.925	108.583
790.053	109.315
790.181	108.913
790.310	108.882
790.438	108.197
790.566	108.827
790.694	109.016
790.822	108.260
790.950	109.520
791.078	108.803
791.206	108.047
791.335	108.181
791.463	107.913
791.591	108.843
791.719	108.661
791.847	107.512
791.975	107.984
792.103	107.346
792.231	108.961
792.360	108.591
792.488	106.299
792.616	108.780
792.744	107.457
792.872	108.087
793.000	107.283
793.128	107.276
793.256	108.780
793.385	108.039
793.513	108.457
793.641	108.402
793.769	106.929
793.897	107.780
794.025	109.449
794.153	108.732
794.281	106.496
794.410	107.307
794.538	108.701
794.666	108.197
794.794	107.732
794.922	107.898
795.050	107.472
795.178	108.480
795.306	106.331
795.435	107.724
795.563	106.598
795.691	106.882
795.819	106.803
795.947	107.496
796.075	107.654
796.203	108.417
796.331	106.457
796.460	107.244
796.588	106.992
796.716	107.409
796.844	106.858
796.972	108.323
797.100	106.134
797.228	107.827
797.356	108.740
797.485	107.047
797.613	107.362
797.741	107.362
797.869	107.079
797.997	107.614
798.125	107.220
798.253	107.118
798.381	106.984
798.510	107.063
798.638	106.031
798.766	106.795
798.894	106.165
799.022	106.299
799.150	106.496
799.278	106.362
799.406	107.472
799.535	107.362
799.663	107.102
799.791	106.071
799.919	106.291
800.047	107.394
800.175	106.740
800.303	106.898
800.431	106.709
800.560	106.189
800.688	106.874
800.816	107.016
800.944	106.945
801.072	107.000
801.200	106.669
801.328	106.850
801.456	107.638
801.585	108.087
801.713	107.496
801.841	107.646
801.969	107.906
802.097	107.071
802.225	106.850
802.353	106.913
802.481	106.276
802.610	107.819
802.738	106.882
802.866	107.016
802.994	106.575
803.122	105.858
803.250	107.614
803.378	107.205
803.506	107.197
803.635	107.071
803.763	106.843
803.891	107.787
804.019	107.724
804.147	106.402
804.275	106.598
804.403	106.110
804.531	106.315
804.660	106.583
804.788	106.087
804.916	106.606
805.044	105.646
805.172	106.748
805.300	105.583
805.428	106.370
805.556	105.843
805.685	106.465
805.813	107.220
805.941	105.843
806.069	107.000
806.197	107.197
806.325	105.528
806.453	107.063
806.581	106.299
806.710	105.409
806.838	105.220
806.966	106.575
807.094	105.992
807.222	106.520
807.350	106.811
807.478	106.598
807.606	105.843
807.735	106.134
807.863	107.173
807.991	105.425
808.119	105.866
808.247	105.449
808.375	106.268
808.503	105.079
808.631	107.055
808.760	106.331
808.888	105.024
809.016	107.102
809.144	106.819
809.272	106.906
809.400	105.748
809.528	106.291
809.656	105.402
809.785	105.543
809.913	105.874
810.041	105.890
810.169	105.724
810.297	106.000
810.425	105.260
810.553	105.008
810.681	106.583
810.810	105.929
810.938	106.787
811.066	104.890
811.194	105.362
811.322	105.646
811.450	105.512
811.578	106.449
811.706	106.205
811.835	105.535
811.963	105.724
812.091	105.906
812.219	106.055
812.347	105.283
812.475	106.016
812.603	105.945
812.731	105.055
812.860	106.276
812.988	106.732
813.116	105.638
813.244	105.669
813.372	106.118
813.500	105.504
813.628	106.386
813.756	104.236
813.885	105.843
814.013	104.535
814.141	106.244
814.269	106.362
814.397	106.362
814.525	105.677
814.653	105.543
814.781	104.913
814.910	104.882
815.038	106.063
815.166	106.480
815.294	104.961
815.422	106.795
815.550	105.157
815.678	105.283
815.806	105.346
815.935	105.087
816.063	104.197
816.191	105.433
816.319	106.008
816.447	105.693
816.575	105.630
816.703	105.480
816.831	106.000
816.960	106.480
817.088	105.449
817.216	105.724
817.344	105.047
817.472	106.717
817.600	104.913
817.728	105.559
817.856	105.740
817.985	104.795
818.113	105.575
818.241	105.291
818.369	105.118
818.497	106.087
818.625	104.457
818.753	104.843
818.881	105.850
819.010	105.370
819.138	105.480
819.266	105.244
819.394	104.441
819.522	103.827
819.650	106.087
819.778	104.772
819.906	105.205
820.035	105.583
820.163	105.039
820.291	104.339
820.419	104.638
820.547	106.339
820.675	103.827
820.803	104.921
820.931	105.606
821.060	103.732
821.188	105.567
821.316	104.961
821.444	105.661
821.572	104.764
821.700	105.472
821.828	106.063
821.956	105.000
822.085	104.669
822.213	105.378
822.341	105.071
822.469	105.047
822.597	104.748
822.725	105.008
822.853	104.811
822.981	105.039
823.110	105.780
823.238	103.772
823.366	105.126
823.494	104.228
823.622	104.150
823.750	104.811
823.878	103.496
824.006	105.409
824.135	105.189
824.263	105.961
824.391	104.228
824.519	105.953
824.647	105.528
824.775	105.646
824.903	105.291
825.031	105.654
825.160	105.543
825.288	104.496
825.416	104.677
825.544	105.425
825.672	105.457
825.800	105.039
825.928	105.110
826.056	106.165
826.185	104.512
826.313	105.110
826.441	104.874
826.569	104.480
826.697	105.409
826.825	104.276
826.953	104.811
827.081	103.937
827.210	105.118
827.338	104.039
827.466	104.126
827.594	104.929
827.722	105.094
827.850	104.386
827.978	103.449
828.106	103.976
828.235	105.339
828.363	104.787
828.491	104.370
828.619	104.346
828.747	104.402
828.875	104.748
829.003	105.236
829.131	105.362
829.260	106.000
829.388	104.898
829.516	105.378
829.644	105.087
829.772	105.087
829.900	105.228
830.028	105.606
830.156	105.087
830.285	104.866
830.413	104.669
830.541	104.969
830.669	104.228
830.797	103.929
830.925	104.480
831.053	104.126
831.181	105.244
831.310	105.142
831.438	104.740
831.566	104.661
831.694	104.583
831.822	104.449
831.950	105.094
832.078	105.102
832.206	104.701
832.335	103.795
832.463	104.921
832.591	105.433
832.719	103.890
832.847	103.929
832.975	104.024
833.103	104.370
833.231	104.220
833.360	104.646
833.488	104.449
833.616	103.756
833.744	103.843
833.872	104.913
834.000	105.276
834.128	105.244
834.256	104.291
834.385	104.346
834.513	105.409
834.641	103.685
834.769	103.756
834.897	105.039
835.025	103.646
835.153	103.291
835.281	104.205
835.410	104.118
835.538	104.016
835.666	104.906
835.794	104.874
835.922	103.827
836.050	103.961
836.178	104.638
836.306	104.118
836.435	104.291
836.563	103.913
836.691	105.016
836.819	105.756
836.947	104.063
837.075	103.843
837.203	103.913
837.331	104.165
837.460	104.252
837.588	103.803
837.716	104.425
837.844	104.315
837.972	104.898
838.100	104.173
838.228	103.724
838.356	103.323
838.485	102.945
838.613	103.094
838.741	104.283
838.869	103.811
838.997	104.339
839.125	102.417
839.253	103.677
839.381	104.252
839.510	104.260
839.638	103.638
839.766	103.732
839.894	103.953
840.022	104.724
840.150	104.732
840.278	103.567
840.406	104.063
840.535	104.323
840.663	103.480
840.791	103.228
840.919	104.150
841.047	102.858
841.175	103.606
841.303	104.063
841.431	103.803
841.560	104.299
841.688	103.961
841.816	102.685
841.944	103.976
842.072	103.669
842.200	103.756
842.328	104.425
842.456	103.969
842.585	104.677
842.713	103.843
842.841	103.394
842.969	104.252
843.097	104.283
843.225	104.291
843.353	103.488
843.481	102.827
843.610	104.228
843.738	102.953
843.866	103.433
