90-100-0_at_679.99nm_cut_at_1250.00Y_01.dat
24.01.2024
13:29:51
cut middle at Y: 1250.00
top cursor: 1310 down cursor: 1190 mean of: 120 lines , 2560 datapoints
wavelength(nm)	intensity[arb. units]
515.994	404.308
516.122	393.158
516.250	387.117
516.378	382.283
516.506	383.692
516.635	383.392
516.763	389.792
516.891	387.283
517.019	390.400
517.147	388.117
517.275	387.800
517.403	390.725
517.531	390.992
517.660	388.525
517.788	391.733
517.916	391.225
518.044	393.475
518.172	397.533
518.300	397.400
518.428	394.725
518.556	394.175
518.685	397.708
518.813	400.275
518.941	399.358
519.069	393.275
519.197	400.025
519.325	402.858
519.453	395.192
519.581	406.033
519.710	401.625
519.838	404.158
519.966	398.817
520.094	406.875
520.222	405.500
520.350	404.008
520.478	406.217
520.606	409.883
520.735	408.325
520.863	408.783
520.991	407.475
521.119	408.558
521.247	411.817
521.375	409.967
521.503	414.108
521.631	416.417
521.760	416.158
521.888	414.692
522.016	419.425
522.144	414.233
522.272	426.483
522.400	423.517
522.528	426.008
522.656	422.025
522.785	426.717
522.913	430.042
523.041	429.375
523.169	424.350
523.297	428.850
523.425	431.817
523.553	429.825
523.681	426.558
523.810	434.008
523.938	431.608
524.066	430.133
524.194	431.392
524.322	429.650
524.450	433.800
524.578	434.517
524.706	432.250
524.835	433.883
524.963	432.642
525.091	435.108
525.219	433.383
525.347	431.392
525.475	433.975
525.603	431.967
525.731	439.492
525.860	432.425
525.988	431.700
526.116	434.575
526.244	433.100
526.372	433.575
526.500	436.325
526.628	438.150
526.756	430.875
526.885	434.825
527.013	434.042
527.141	437.017
527.269	438.517
527.397	442.433
527.525	439.833
527.653	436.258
527.781	435.933
527.910	433.792
528.038	446.267
528.166	442.333
528.294	441.042
528.422	438.167
528.550	442.442
528.678	441.267
528.806	447.825
528.935	440.233
529.063	444.067
529.191	445.900
529.319	447.108
529.447	444.758
529.575	445.708
529.703	449.150
529.831	447.025
529.960	450.800
530.088	445.292
530.216	449.367
530.344	447.250
530.472	450.050
530.600	456.433
530.728	448.467
530.856	448.658
530.985	448.050
531.113	448.758
531.241	457.517
531.369	451.525
531.497	455.167
531.625	453.742
531.753	446.242
531.881	453.500
532.010	449.650
532.138	451.692
532.266	449.383
532.394	448.500
532.522	449.433
532.650	450.058
532.778	457.675
532.906	447.967
533.035	453.400
533.163	450.075
533.291	447.558
533.419	454.317
533.547	446.792
533.675	448.750
533.803	452.650
533.931	449.950
534.060	451.000
534.188	450.108
534.316	454.117
534.444	445.917
534.572	451.458
534.700	449.875
534.828	451.025
534.956	453.158
535.085	452.933
535.213	457.167
535.341	457.283
535.469	453.483
535.597	451.917
535.725	462.017
535.853	459.225
535.981	463.333
536.110	460.550
536.238	461.858
536.366	470.517
536.494	459.808
536.622	467.142
536.750	460.950
536.878	468.692
537.006	470.033
537.135	472.100
537.263	467.275
537.391	468.708
537.519	468.175
537.647	475.275
537.775	475.250
537.903	478.433
538.031	473.242
538.160	468.650
538.288	477.517
538.416	477.975
538.544	472.017
538.672	477.067
538.800	483.550
538.928	482.442
539.056	479.567
539.185	485.292
539.313	477.100
539.441	477.275
539.569	485.633
539.697	484.475
539.825	486.008
539.953	485.442
540.081	479.475
540.210	487.642
540.338	483.183
540.466	487.867
540.594	487.700
540.722	476.050
540.850	486.233
540.978	486.267
541.106	483.800
541.235	493.617
541.363	488.100
541.491	487.092
541.619	485.158
541.747	489.217
541.875	490.525
542.003	492.025
542.131	487.683
542.260	489.767
542.388	487.883
542.516	492.675
542.644	488.025
542.772	492.467
542.900	490.192
543.028	492.650
543.156	486.833
543.285	491.750
543.413	488.842
543.541	495.592
543.669	496.275
543.797	496.233
543.925	493.667
544.053	496.742
544.181	498.542
544.310	489.908
544.438	493.633
544.566	499.358
544.694	493.175
544.822	493.042
544.950	492.208
545.078	494.275
545.206	496.292
545.335	498.525
545.463	493.617
545.591	498.242
545.719	498.183
545.847	494.567
545.975	494.042
546.103	493.825
546.231	489.450
546.360	498.742
546.488	492.967
546.616	494.267
546.744	497.150
546.872	493.342
547.000	495.533
547.128	496.158
547.256	496.475
547.385	494.042
547.513	494.575
547.641	495.183
547.769	496.250
547.897	490.117
548.025	500.283
548.153	495.950
548.281	490.442
548.410	491.500
548.538	494.075
548.666	490.142
548.794	490.792
548.922	493.183
549.050	495.008
549.178	492.075
549.306	494.533
549.435	494.342
549.563	490.775
549.691	494.967
549.819	496.933
549.947	497.942
550.075	494.408
550.203	496.658
550.331	492.950
550.460	501.892
550.588	493.700
550.716	503.208
550.844	492.117
550.972	492.925
551.100	495.250
551.228	503.258
551.356	495.808
551.485	502.625
551.613	497.667
551.741	498.508
551.869	494.450
551.997	495.100
552.125	492.317
552.253	494.300
552.381	490.242
552.510	487.267
552.638	494.483
552.766	497.483
552.894	487.608
553.022	489.067
553.150	483.817
553.278	491.742
553.406	489.817
553.535	484.933
553.663	488.425
553.791	484.767
553.919	487.467
554.047	491.067
554.175	486.758
554.303	491.950
554.431	484.442
554.560	487.817
554.688	488.942
554.816	482.083
554.944	482.675
555.072	485.067
555.200	488.617
555.328	480.433
555.456	486.100
555.585	485.542
555.713	484.808
555.841	483.575
555.969	486.950
556.097	490.225
556.225	481.900
556.353	485.842
556.481	483.567
556.610	485.342
556.738	487.025
556.866	484.758
556.994	488.608
557.122	484.958
557.250	489.017
557.378	488.167
557.506	482.000
557.635	486.683
557.763	484.683
557.891	490.925
558.019	487.983
558.147	488.583
558.275	484.833
558.403	488.700
558.531	489.642
558.660	488.125
558.788	487.000
558.916	488.508
559.044	487.642
559.172	487.242
559.300	492.308
559.428	490.308
559.556	491.033
559.685	488.708
559.813	485.175
559.941	489.233
560.069	489.458
560.197	489.025
560.325	492.300
560.453	485.933
560.581	490.800
560.710	489.433
560.838	489.358
560.966	489.817
561.094	490.333
561.222	484.842
561.350	486.167
561.478	484.642
561.606	485.542
561.735	481.408
561.863	485.700
561.991	487.125
562.119	480.025
562.247	478.300
562.375	488.475
562.503	481.567
562.631	483.742
562.760	484.825
562.888	489.267
563.016	484.667
563.144	485.275
563.272	481.025
563.400	473.600
563.528	480.267
563.656	485.800
563.785	490.483
563.913	483.883
564.041	477.592
564.169	482.017
564.297	480.542
564.425	477.708
564.553	487.233
564.681	481.675
564.810	480.175
564.938	480.317
565.066	481.092
565.194	486.342
565.322	483.800
565.450	479.942
565.578	488.617
565.706	480.067
565.835	488.800
565.963	482.400
566.091	477.808
566.219	487.867
566.347	486.308
566.475	479.775
566.603	490.425
566.731	487.858
566.860	483.825
566.988	486.558
567.116	490.400
567.244	487.883
567.372	490.650
567.500	491.050
567.628	491.375
567.756	492.275
567.885	497.617
568.013	495.950
568.141	495.083
568.269	491.250
568.397	494.008
568.525	493.067
568.653	497.283
568.781	500.875
568.910	496.175
569.038	500.700
569.166	494.675
569.294	500.267
569.422	495.975
569.550	494.658
569.678	505.867
569.806	502.142
569.935	505.350
570.063	497.317
570.191	505.792
570.319	502.317
570.447	498.767
570.575	503.117
570.703	502.758
570.831	505.192
570.960	506.100
571.088	507.092
571.216	505.417
571.344	503.483
571.472	504.483
571.600	509.958
571.728	506.125
571.856	505.167
571.985	506.333
572.113	509.208
572.241	509.317
572.369	506.675
572.497	507.808
572.625	504.900
572.753	510.492
572.881	509.292
573.010	511.683
573.138	513.417
573.266	513.917
573.394	512.750
573.522	511.542
573.650	506.883
573.778	506.617
573.906	509.933
574.035	511.092
574.163	515.100
574.291	512.050
574.419	512.725
574.547	514.875
574.675	517.700
574.803	516.517
574.931	510.100
575.060	515.892
575.188	513.333
575.316	513.742
575.444	510.025
575.572	521.067
575.700	511.842
575.828	519.850
575.956	517.808
576.085	518.025
576.213	517.758
576.341	517.108
576.469	515.742
576.597	513.592
576.725	512.750
576.853	518.017
576.981	517.167
577.110	515.317
577.238	523.017
577.366	515.783
577.494	511.900
577.622	522.167
577.750	512.242
577.878	517.283
578.006	518.458
578.135	516.292
578.263	510.592
578.391	519.300
578.519	518.083
578.647	519.308
578.775	516.267
578.903	514.583
579.031	521.333
579.160	517.083
579.288	516.083
579.416	518.758
579.544	513.508
579.672	517.925
579.800	514.350
579.928	522.208
580.056	513.617
580.185	517.583
580.313	520.808
580.441	521.342
580.569	511.700
580.697	516.658
580.825	522.925
580.953	523.117
581.081	522.242
581.210	525.183
581.338	530.833
581.466	525.025
581.594	529.192
581.722	524.583
581.850	521.908
581.978	527.083
582.106	529.508
582.235	530.625
582.363	527.092
582.491	535.692
582.619	530.217
582.747	532.250
582.875	533.158
583.003	535.350
583.131	535.933
583.260	532.150
583.388	538.392
583.516	536.583
583.644	540.817
583.772	541.067
583.900	546.225
584.028	541.867
584.156	542.883
584.285	545.950
584.413	545.317
584.541	552.225
584.669	547.825
584.797	548.183
584.925	542.758
585.053	550.883
585.181	554.758
585.310	555.258
585.438	553.242
585.566	555.133
585.694	561.717
585.822	560.433
585.950	558.975
586.078	561.192
586.206	563.800
586.335	563.133
586.463	563.108
586.591	572.425
586.719	564.408
586.847	568.208
586.975	570.700
587.103	573.683
587.231	567.900
587.360	570.175
587.488	569.867
587.616	572.250
587.744	576.200
587.872	573.325
588.000	574.267
588.128	580.083
588.256	579.708
588.385	573.317
588.513	568.208
588.641	572.458
588.769	580.442
588.897	572.258
589.025	575.125
589.153	576.150
589.281	577.508
589.410	575.692
589.538	577.483
589.666	580.100
589.794	576.642
589.922	580.450
590.050	581.375
590.178	576.692
590.306	577.033
590.435	577.208
590.563	578.208
590.691	581.192
590.819	573.892
590.947	588.092
591.075	575.625
591.203	575.092
591.331	582.208
591.460	582.150
591.588	578.892
591.716	586.342
591.844	584.517
591.972	586.525
592.100	581.100
592.228	586.208
592.356	588.000
592.485	581.967
592.613	582.692
592.741	586.583
592.869	589.225
592.997	591.833
593.125	593.317
593.253	592.817
593.381	585.067
593.510	589.000
593.638	588.400
593.766	588.283
593.894	590.233
594.022	592.283
594.150	584.833
594.278	596.400
594.406	592.567
594.535	600.100
594.663	605.742
594.791	598.383
594.919	594.733
595.047	604.750
595.175	597.567
595.303	599.117
595.431	603.683
595.560	611.275
595.688	605.967
595.816	600.633
595.944	605.917
596.072	610.117
596.200	611.325
596.328	609.842
596.456	616.650
596.585	613.308
596.713	615.700
596.841	609.417
596.969	609.600
597.097	618.942
597.225	612.650
597.353	616.933
597.481	615.583
597.610	619.567
597.738	617.325
597.866	609.933
597.994	626.000
598.122	621.333
598.250	624.375
598.378	624.700
598.506	627.200
598.635	619.892
598.763	628.242
598.891	618.525
599.019	629.117
599.147	620.617
599.275	624.792
599.403	622.833
599.531	625.233
599.660	629.842
599.788	627.675
599.916	621.633
600.044	625.842
600.172	636.133
600.300	633.617
600.428	631.875
600.556	630.858
600.685	636.517
600.813	639.067
600.941	642.775
601.069	640.492
601.197	637.600
601.325	635.217
601.453	639.025
601.581	646.392
601.710	651.500
601.838	649.683
601.966	645.183
602.094	645.842
602.222	643.050
602.350	651.975
602.478	652.983
602.606	653.683
602.735	652.350
602.863	657.200
602.991	660.108
603.119	661.883
603.247	665.800
603.375	661.600
603.503	657.408
603.631	662.317
603.760	664.425
603.888	668.458
604.016	664.383
604.144	669.858
604.272	666.275
604.400	667.825
604.528	666.917
604.656	671.900
604.785	675.200
604.913	685.342
605.041	678.125
605.169	677.417
605.297	676.892
605.425	677.092
605.553	682.650
605.681	679.933
605.810	684.600
605.938	685.150
606.066	684.308
606.194	683.358
606.322	684.083
606.450	686.833
606.578	686.825
606.706	690.900
606.835	695.983
606.963	686.867
607.091	690.058
607.219	684.350
607.347	684.358
607.475	700.258
607.603	695.458
607.731	695.542
607.860	694.842
607.988	691.975
608.116	690.925
608.244	689.483
608.372	702.892
608.500	694.467
608.628	702.200
608.756	703.325
608.885	703.175
609.013	702.542
609.141	695.650
609.269	702.208
609.397	701.158
609.525	695.608
609.653	707.608
609.781	706.050
609.910	700.950
610.038	696.525
610.166	710.983
610.294	700.083
610.422	713.242
610.550	702.808
610.678	703.825
610.806	710.167
610.935	710.075
611.063	708.617
611.191	704.283
611.319	700.883
611.447	714.317
611.575	713.317
611.703	705.650
611.831	713.817
611.960	713.883
612.088	705.608
612.216	713.733
612.344	714.608
612.472	705.917
612.600	719.867
612.728	714.967
612.856	713.583
612.985	712.292
613.113	714.417
613.241	717.033
613.369	718.817
613.497	713.817
613.625	715.592
613.753	712.992
613.881	712.592
614.010	720.892
614.138	714.750
614.266	717.342
614.394	716.158
614.522	713.250
614.650	724.058
614.778	719.100
614.906	730.308
615.035	720.542
615.163	720.992
615.291	725.025
615.419	721.617
615.547	724.825
615.675	728.067
615.803	729.708
615.931	731.142
616.060	735.158
616.188	732.750
616.316	724.467
616.444	728.692
616.572	735.425
616.700	732.425
616.828	740.742
616.956	742.583
617.085	742.458
617.213	741.100
617.341	737.617
617.469	745.600
617.597	750.283
617.725	740.100
617.853	740.167
617.981	742.033
618.110	756.433
618.238	750.017
618.366	753.125
618.494	756.150
618.622	749.275
618.750	760.850
618.878	759.000
619.006	757.708
619.135	765.267
619.263	766.342
619.391	764.192
619.519	771.217
619.647	775.767
619.775	775.175
619.903	777.608
620.031	775.175
620.160	775.458
620.288	775.783
620.416	790.233
620.544	783.358
620.672	778.667
620.800	785.958
620.928	795.367
621.056	788.175
621.185	786.933
621.313	787.658
621.441	796.992
621.569	798.900
621.697	806.433
621.825	808.792
621.953	806.375
622.081	810.583
622.210	799.992
622.338	806.908
622.466	813.258
622.594	814.383
622.722	809.592
622.850	816.908
622.978	823.350
623.106	818.500
623.235	825.042
623.363	824.358
623.491	825.250
623.619	823.067
623.747	825.383
623.875	827.308
624.003	833.283
624.131	833.592
624.260	824.125
624.388	829.208
624.516	836.475
624.644	829.308
624.772	826.408
624.900	832.158
625.028	838.925
625.156	850.383
625.285	844.033
625.413	840.442
625.541	841.975
625.669	852.850
625.797	842.275
625.925	845.950
626.053	849.117
626.181	852.375
626.310	851.600
626.438	853.625
626.566	850.708
626.694	848.217
626.822	849.942
626.950	855.300
627.078	851.533
627.206	857.192
627.335	863.333
627.463	861.242
627.591	862.683
627.719	856.008
627.847	862.917
627.975	871.208
628.103	858.817
628.231	865.975
628.360	862.042
628.488	861.450
628.616	870.025
628.744	865.833
628.872	877.083
629.000	878.608
629.128	872.508
629.256	882.333
629.385	885.767
629.513	873.792
629.641	885.500
629.769	880.800
629.897	881.525
630.025	876.617
630.153	889.408
630.281	884.167
630.410	877.958
630.538	893.508
630.666	894.183
630.794	887.842
630.922	891.442
631.050	890.325
631.178	895.425
631.306	893.617
631.435	900.483
631.563	904.292
631.691	899.900
631.819	908.033
631.947	904.717
632.075	904.692
632.203	901.575
632.331	913.750
632.460	902.658
632.588	912.075
632.716	912.092
632.844	908.158
632.972	912.025
633.100	919.933
633.228	919.342
633.356	914.950
633.485	914.075
633.613	922.550
633.741	920.817
633.869	923.958
633.997	922.967
634.125	928.975
634.253	910.133
634.381	911.917
634.510	923.350
634.638	922.525
634.766	925.825
634.894	921.642
635.022	925.533
635.150	931.550
635.278	943.783
635.406	925.850
635.535	936.075
635.663	942.333
635.791	926.075
635.919	939.467
636.047	940.958
636.175	929.117
636.303	941.142
636.431	947.392
636.560	945.050
636.688	950.117
636.816	945.017
636.944	947.142
637.072	945.442
637.200	945.658
637.328	947.542
637.456	957.400
637.585	946.992
637.713	952.558
637.841	947.250
637.969	956.258
638.097	957.400
638.225	963.958
638.353	970.575
638.481	963.567
638.610	965.542
638.738	965.958
638.866	962.675
638.994	968.333
639.122	974.542
639.250	984.517
639.378	976.875
639.506	976.333
639.635	977.283
639.763	976.083
639.891	981.717
640.019	988.083
640.147	983.142
640.275	987.483
640.403	987.417
640.531	986.492
640.660	991.992
640.788	996.100
640.916	985.908
641.044	997.250
641.172	1000.650
641.300	1005.550
641.428	1003.858
641.556	1009.083
641.685	1001.992
641.813	1013.417
641.941	1015.658
642.069	1017.717
642.197	1018.092
642.325	1012.108
642.453	1023.183
642.581	1026.025
642.710	1024.008
642.838	1030.167
642.966	1023.658
643.094	1026.833
643.222	1027.483
643.350	1027.667
643.478	1039.675
643.606	1042.967
643.735	1038.067
643.863	1033.417
643.991	1046.925
644.119	1056.750
644.247	1050.425
644.375	1049.867
644.503	1057.017
644.631	1063.842
644.760	1064.542
644.888	1068.158
645.016	1065.450
645.144	1074.767
645.272	1068.050
645.400	1065.292
645.528	1072.142
645.656	1066.983
645.785	1078.608
645.913	1078.125
646.041	1085.533
646.169	1069.075
646.297	1079.800
646.425	1081.367
646.553	1082.350
646.681	1085.767
646.810	1090.250
646.938	1091.558
647.066	1087.750
647.194	1096.192
647.322	1089.250
647.450	1097.975
647.578	1104.975
647.706	1097.392
647.835	1104.592
647.963	1096.675
648.091	1102.050
648.219	1101.042
648.347	1106.100
648.475	1107.950
648.603	1115.175
648.731	1108.708
648.860	1103.317
648.988	1120.175
649.116	1111.750
649.244	1116.467
649.372	1099.225
649.500	1115.792
649.628	1115.067
649.756	1103.875
649.885	1111.308
650.013	1109.492
650.141	1106.175
650.269	1110.133
650.397	1114.300
650.525	1109.533
650.653	1125.308
650.781	1108.308
650.910	1110.042
651.038	1104.742
651.166	1114.467
651.294	1116.667
651.422	1104.833
651.550	1109.608
651.678	1110.033
651.806	1108.117
651.935	1113.817
652.063	1102.458
652.191	1105.183
652.319	1109.108
652.447	1103.425
652.575	1103.900
652.703	1101.808
652.831	1099.950
652.960	1109.108
653.088	1097.100
653.216	1099.133
653.344	1105.000
653.472	1115.233
653.600	1101.858
653.728	1110.450
653.856	1099.625
653.985	1120.683
654.113	1112.492
654.241	1107.642
654.369	1103.225
654.497	1111.650
654.625	1106.875
654.753	1105.608
654.881	1103.958
655.010	1113.617
655.138	1107.542
655.266	1105.225
655.394	1106.492
655.522	1108.267
655.650	1104.733
655.778	1114.817
655.906	1115.533
656.035	1117.792
656.163	1109.000
656.291	1119.342
656.419	1126.383
656.547	1126.892
656.675	1110.167
656.803	1124.858
656.931	1112.542
657.060	1115.592
657.188	1124.192
657.316	1127.350
657.444	1126.758
657.572	1130.208
657.700	1120.283
657.828	1129.350
657.956	1126.433
658.085	1138.950
658.213	1127.708
658.341	1129.667
658.469	1129.275
658.597	1142.533
658.725	1136.917
658.853	1128.408
658.981	1127.383
659.110	1144.817
659.238	1135.008
659.366	1135.108
659.494	1137.858
659.622	1131.433
659.750	1149.267
659.878	1142.575
660.006	1139.817
660.135	1146.283
660.263	1139.317
660.391	1136.133
660.519	1147.625
660.647	1139.325
660.775	1147.100
660.903	1147.625
661.031	1142.808
661.160	1156.492
661.288	1149.975
661.416	1163.642
661.544	1140.142
661.672	1142.400
661.800	1159.042
661.928	1156.117
662.056	1144.167
662.185	1155.317
662.313	1151.967
662.441	1163.925
662.569	1158.267
662.697	1164.192
662.825	1149.967
662.953	1163.150
663.081	1154.383
663.210	1167.508
663.338	1167.875
663.466	1163.442
663.594	1160.917
663.722	1158.467
663.850	1155.517
663.978	1151.550
664.106	1173.717
664.235	1164.867
664.363	1171.092
664.491	1164.092
664.619	1174.717
664.747	1168.000
664.875	1161.492
665.003	1163.575
665.131	1173.783
665.260	1170.383
665.388	1167.225
665.516	1166.675
665.644	1172.758
665.772	1166.850
665.900	1182.925
666.028	1177.875
666.156	1181.083
666.285	1172.200
666.413	1181.883
666.541	1176.008
666.669	1178.508
666.797	1172.033
666.925	1182.450
667.053	1189.633
667.181	1175.742
667.310	1168.808
667.438	1179.258
667.566	1175.550
667.694	1176.750
667.822	1191.858
667.950	1188.633
668.078	1177.417
668.206	1184.450
668.335	1183.992
668.463	1194.108
668.591	1188.967
668.719	1177.150
668.847	1178.708
668.975	1184.358
669.103	1199.250
669.231	1195.442
669.360	1188.608
669.488	1197.050
669.616	1190.058
669.744	1187.158
669.872	1185.892
670.000	1206.792
670.128	1184.242
670.256	1186.967
670.385	1193.017
670.513	1201.675
670.641	1189.533
670.769	1187.667
670.897	1183.475
671.025	1197.842
671.153	1196.042
671.281	1205.742
671.410	1201.067
671.538	1196.100
671.666	1192.150
671.794	1198.492
671.922	1186.808
672.050	1181.958
672.178	1197.200
672.306	1185.517
672.435	1192.283
672.563	1189.375
672.691	1202.083
672.819	1202.817
672.947	1190.217
673.075	1189.983
673.203	1195.233
673.331	1183.908
673.460	1189.092
673.588	1186.092
673.716	1194.275
673.844	1190.033
673.972	1193.383
674.100	1196.892
674.228	1194.900
674.356	1178.183
674.485	1178.617
674.613	1174.142
674.741	1191.008
674.869	1187.933
674.997	1178.708
675.125	1184.033
675.253	1171.508
675.381	1183.000
675.510	1175.350
675.638	1175.150
675.766	1178.508
675.894	1173.308
676.022	1166.925
676.150	1171.667
676.278	1174.133
676.406	1174.083
676.535	1173.250
676.663	1163.342
676.791	1165.700
676.919	1164.433
677.047	1164.567
677.175	1150.850
677.303	1153.892
677.431	1158.217
677.560	1149.667
677.688	1156.892
677.816	1150.508
677.944	1139.550
678.072	1152.150
678.200	1153.300
678.328	1140.758
678.456	1141.025
678.585	1142.433
678.713	1139.275
678.841	1136.908
678.969	1135.867
679.097	1142.158
679.225	1141.492
679.353	1149.242
679.481	1129.175
679.610	1138.400
679.738	1125.142
679.866	1133.558
679.994	1130.817
680.122	1134.017
680.250	1113.175
680.378	1126.158
680.506	1122.417
680.635	1125.917
680.763	1119.367
680.891	1113.550
681.019	1128.058
681.147	1123.192
681.275	1105.883
681.403	1108.050
681.531	1115.408
681.660	1108.958
681.788	1112.367
681.916	1109.558
682.044	1117.250
682.172	1101.825
682.300	1101.067
682.428	1106.858
682.556	1096.117
682.685	1111.058
682.813	1101.567
682.941	1097.517
683.069	1091.783
683.197	1106.867
683.325	1094.342
683.453	1093.983
683.581	1090.650
683.710	1090.892
683.838	1097.008
683.966	1088.725
684.094	1103.683
684.222	1095.342
684.350	1091.158
684.478	1098.658
684.606	1100.983
684.735	1089.817
684.863	1096.275
684.991	1089.433
685.119	1087.333
685.247	1086.433
685.375	1076.692
685.503	1082.417
685.631	1091.225
685.760	1089.992
685.888	1088.583
686.016	1081.025
686.144	1082.858
686.272	1079.692
686.400	1095.675
686.528	1079.492
686.656	1085.850
686.785	1077.367
686.913	1086.858
687.041	1073.192
687.169	1077.825
687.297	1084.392
687.425	1071.608
687.553	1071.492
687.681	1080.500
687.810	1077.392
687.938	1066.350
688.066	1076.042
688.194	1080.883
688.322	1075.642
688.450	1068.883
688.578	1075.708
688.706	1078.608
688.835	1062.125
688.963	1070.050
689.091	1075.200
689.219	1061.358
689.347	1069.983
689.475	1069.950
689.603	1063.425
689.731	1073.492
689.860	1070.233
689.988	1069.075
690.116	1075.100
690.244	1071.575
690.372	1066.833
690.500	1064.092
690.628	1060.342
690.756	1059.700
690.885	1060.075
691.013	1056.583
691.141	1063.375
691.269	1063.208
691.397	1054.183
691.525	1062.442
691.653	1063.300
691.781	1064.475
691.910	1052.850
692.038	1051.425
692.166	1048.992
692.294	1052.958
692.422	1044.367
692.550	1053.775
692.678	1045.358
692.806	1045.917
692.935	1038.883
693.063	1033.783
693.191	1034.892
693.319	1040.775
693.447	1031.225
693.575	1032.825
693.703	1034.075
693.831	1036.333
693.960	1031.667
694.088	1031.667
694.216	1021.808
694.344	1024.375
694.472	1030.717
694.600	1022.108
694.728	1019.883
694.856	1013.967
694.985	1017.958
695.113	1007.975
695.241	1011.733
695.369	1008.917
695.497	1010.217
695.625	1012.925
695.753	1008.025
695.881	998.700
696.010	1002.058
696.138	1001.917
696.266	998.825
696.394	996.067
696.522	990.725
696.650	982.850
696.778	984.267
696.906	981.867
697.035	973.450
697.163	973.767
697.291	975.533
697.419	973.750
697.547	970.583
697.675	968.475
697.803	966.117
697.931	964.250
698.060	954.867
698.188	950.692
698.316	957.700
698.444	946.417
698.572	948.692
698.700	951.667
698.828	945.483
698.956	939.533
699.085	936.842
699.213	935.142
699.341	932.642
699.469	932.917
699.597	938.283
699.725	940.200
699.853	917.500
699.981	926.192
700.110	916.183
700.238	918.975
700.366	911.725
700.494	912.667
700.622	912.225
700.750	897.475
700.878	910.592
701.006	892.683
701.135	905.100
701.263	900.300
701.391	894.733
701.519	903.267
701.647	888.975
701.775	899.550
701.903	887.825
702.031	894.625
702.160	891.650
702.288	888.850
702.416	877.592
702.544	869.267
702.672	874.017
702.800	872.117
702.928	872.950
703.056	875.075
703.185	859.900
703.313	867.433
703.441	865.533
703.569	861.908
703.697	863.867
703.825	854.092
703.953	860.883
704.081	853.508
704.210	845.175
704.338	846.883
704.466	846.317
704.594	843.158
704.722	843.600
704.850	840.083
704.978	842.858
705.106	837.083
705.235	826.475
705.363	825.483
705.491	836.167
705.619	833.808
705.747	816.783
705.875	826.817
706.003	813.383
706.131	818.842
706.260	811.850
706.388	804.492
706.516	802.025
706.644	808.600
706.772	805.192
706.900	795.892
707.028	796.958
707.156	799.267
707.285	787.267
707.413	785.600
707.541	781.000
707.669	782.233
707.797	778.775
707.925	777.283
708.053	774.608
708.181	774.250
708.310	765.175
708.438	771.250
708.566	769.333
708.694	760.250
708.822	768.700
708.950	755.558
709.078	755.642
709.206	753.725
709.335	743.467
709.463	741.833
709.591	745.150
709.719	739.792
709.847	729.500
709.975	740.275
710.103	728.133
710.231	724.808
710.360	717.492
710.488	715.342
710.616	710.767
710.744	718.433
710.872	717.100
711.000	713.592
711.128	705.642
711.256	704.442
711.385	704.100
711.513	697.375
711.641	690.225
711.769	694.833
711.897	695.917
712.025	686.300
712.153	684.400
712.281	686.792
712.410	678.858
712.538	679.025
712.666	682.267
712.794	673.150
712.922	674.450
713.050	670.683
713.178	666.533
713.306	673.058
713.435	664.825
713.563	658.567
713.691	666.283
713.819	655.275
713.947	655.717
714.075	649.892
714.203	655.733
714.331	650.725
714.460	640.100
714.588	647.908
714.716	639.600
714.844	637.792
714.972	628.750
715.100	631.875
715.228	634.817
715.356	630.408
715.485	630.383
715.613	626.058
715.741	628.158
715.869	620.758
715.997	620.592
716.125	611.183
716.253	618.625
716.381	615.292
716.510	620.000
716.638	608.392
716.766	611.275
716.894	608.758
717.022	607.183
717.150	603.083
717.278	605.017
717.406	606.175
717.535	600.417
717.663	597.292
717.791	597.542
717.919	590.633
718.047	590.608
718.175	594.500
718.303	587.383
718.431	589.558
718.560	579.892
718.688	582.267
718.816	577.233
718.944	581.442
719.072	580.050
719.200	573.267
719.328	572.900
719.456	575.208
719.585	568.458
719.713	570.308
719.841	564.533
719.969	561.667
720.097	559.692
720.225	553.583
720.353	559.117
720.481	559.917
720.610	553.217
720.738	547.867
720.866	550.875
720.994	549.383
721.122	549.358
721.250	539.475
721.378	541.850
721.506	538.458
721.635	536.617
721.763	538.783
721.891	534.208
722.019	527.617
722.147	524.983
722.275	528.492
722.403	523.192
722.531	519.733
722.660	525.867
722.788	522.325
722.916	525.942
723.044	515.375
723.172	515.733
723.300	510.175
723.428	515.033
723.556	511.142
723.685	505.417
723.813	504.800
723.941	501.925
724.069	508.083
724.197	495.433
724.325	497.967
724.453	492.475
724.581	492.817
724.710	489.450
724.838	483.892
724.966	482.100
725.094	482.817
725.222	480.775
725.350	477.933
725.478	478.392
725.606	477.308
725.735	466.667
725.863	470.433
725.991	467.125
726.119	467.333
726.247	462.308
726.375	463.183
726.503	458.383
726.631	455.858
726.760	459.142
726.888	453.117
727.016	451.633
727.144	450.100
727.272	449.433
727.400	442.017
727.528	438.142
727.656	448.217
727.785	439.758
727.913	434.542
728.041	433.408
728.169	435.167
728.297	433.000
728.425	425.983
728.553	430.192
728.681	426.825
728.810	425.158
728.938	421.758
729.066	422.950
729.194	419.075
729.322	413.850
729.450	415.567
729.578	415.592
729.706	408.375
729.835	414.367
729.963	408.267
730.091	407.233
730.219	409.008
730.347	400.942
730.475	399.683
730.603	391.558
730.731	395.908
730.860	392.842
730.988	386.883
731.116	390.033
731.244	395.342
731.372	390.567
731.500	390.717
731.628	384.942
731.756	383.883
731.885	382.217
732.013	381.300
732.141	375.292
732.269	374.575
732.397	378.633
732.525	375.525
732.653	376.342
732.781	370.558
732.910	369.883
733.038	366.658
733.166	367.250
733.294	371.542
733.422	362.950
733.550	363.308
733.678	363.992
733.806	362.575
733.935	355.717
734.063	360.525
734.191	357.275
734.319	353.042
734.447	354.742
734.575	357.475
734.703	346.492
734.831	347.367
734.960	346.092
735.088	344.050
735.216	344.175
735.344	339.758
735.472	338.450
735.600	340.275
735.728	337.792
735.856	338.833
735.985	341.292
736.113	337.250
736.241	335.058
736.369	331.125
736.497	330.708
736.625	334.417
736.753	328.142
736.881	328.467
737.010	327.833
737.138	325.292
737.266	325.217
737.394	321.958
737.522	320.417
737.650	322.858
737.778	318.900
737.906	317.058
738.035	315.908
738.163	313.425
738.291	314.150
738.419	312.400
738.547	309.633
738.675	311.108
738.803	309.550
738.931	305.417
739.060	305.917
739.188	305.958
739.316	305.400
739.444	304.633
739.572	297.733
739.700	298.292
739.828	297.583
739.956	297.300
740.085	294.917
740.213	301.825
740.341	293.342
740.469	295.025
740.597	294.900
740.725	294.775
740.853	289.967
740.981	294.217
741.110	289.875
741.238	289.050
741.366	287.300
741.494	289.800
741.622	287.592
741.750	288.583
741.878	286.308
742.006	284.942
742.135	283.625
742.263	285.875
742.391	275.700
742.519	282.775
742.647	278.950
742.775	280.817
742.903	278.950
743.031	278.067
743.160	280.808
743.288	273.542
743.416	271.808
743.544	271.400
743.672	276.408
743.800	273.342
743.928	268.683
744.056	270.367
744.185	273.483
744.313	270.233
744.441	268.308
744.569	266.267
744.697	266.242
744.825	266.200
744.953	261.775
745.081	260.775
745.210	262.625
745.338	263.383
745.466	256.458
745.594	263.967
745.722	258.992
745.850	254.925
745.978	258.492
746.106	258.050
746.235	252.192
746.363	258.258
746.491	252.700
746.619	256.367
746.747	253.742
746.875	250.308
747.003	251.233
747.131	248.408
747.260	250.033
747.388	247.392
747.516	250.692
747.644	248.067
747.772	247.617
747.900	245.575
748.028	242.683
748.156	241.650
748.285	243.717
748.413	239.483
748.541	242.183
748.669	239.417
748.797	236.858
748.925	235.992
749.053	237.683
749.181	235.317
749.310	236.942
749.438	233.933
749.566	231.700
749.694	232.592
749.822	233.750
749.950	232.425
750.078	231.075
750.206	229.433
750.335	233.525
750.463	226.492
750.591	230.300
750.719	226.383
750.847	223.733
750.975	225.642
751.103	226.833
751.231	225.658
751.360	223.242
751.488	224.500
751.616	221.442
751.744	221.367
751.872	213.125
752.000	216.867
752.128	217.967
752.256	218.275
752.385	215.075
752.513	215.192
752.641	209.783
752.769	216.858
752.897	214.408
753.025	207.867
753.153	209.642
753.281	210.175
753.410	209.208
753.538	209.808
753.666	208.717
753.794	210.117
753.922	207.550
754.050	203.483
754.178	205.317
754.306	202.550
754.435	206.292
754.563	206.692
754.691	206.483
754.819	203.400
754.947	200.300
755.075	204.925
755.203	200.933
755.331	200.400
755.460	201.125
755.588	199.625
755.716	196.092
755.844	195.417
755.972	198.092
756.100	197.708
756.228	197.483
756.356	194.667
756.485	195.275
756.613	195.825
756.741	191.750
756.869	191.008
756.997	194.958
757.125	192.033
757.253	194.842
757.381	190.283
757.510	194.908
757.638	187.092
757.766	190.233
757.894	187.742
758.022	187.300
758.150	187.525
758.278	185.775
758.406	184.800
758.535	187.850
758.663	187.758
758.791	185.633
758.919	184.792
759.047	182.967
759.175	182.975
759.303	184.175
759.431	181.750
759.560	183.108
759.688	183.333
759.816	180.550
759.944	183.008
760.072	178.583
760.200	180.267
760.328	180.275
760.456	179.517
760.585	178.133
760.713	178.025
760.841	179.125
760.969	179.142
761.097	176.600
761.225	176.617
761.353	175.733
761.481	174.783
761.610	175.225
761.738	172.333
761.866	173.875
761.994	172.292
762.122	172.050
762.250	171.842
762.378	170.458
762.506	171.008
762.635	171.533
762.763	170.867
762.891	170.650
763.019	167.308
763.147	169.042
763.275	171.142
763.403	168.267
763.531	166.067
763.660	166.383
763.788	167.425
763.916	166.475
764.044	164.983
764.172	167.008
764.300	164.958
764.428	166.600
764.556	164.950
764.685	164.550
764.813	164.225
764.941	162.775
765.069	164.983
765.197	163.658
765.325	163.000
765.453	162.733
765.581	162.567
765.710	162.283
765.838	161.642
765.966	162.792
766.094	159.225
766.222	161.200
766.350	158.942
766.478	160.508
766.606	158.492
766.735	156.842
766.863	156.958
766.991	158.683
767.119	156.633
767.247	155.958
767.375	158.067
767.503	154.758
767.631	156.825
767.760	156.300
767.888	153.325
768.016	156.217
768.144	155.325
768.272	155.183
768.400	155.917
768.528	155.433
768.656	155.175
768.785	152.892
768.913	153.350
769.041	153.625
769.169	150.975
769.297	153.142
769.425	151.767
769.553	152.417
769.681	150.783
769.810	154.350
769.938	149.875
770.066	149.617
770.194	151.683
770.322	151.175
770.450	151.208
770.578	149.417
770.706	149.933
770.835	149.133
770.963	147.525
771.091	148.225
771.219	150.233
771.347	148.325
771.475	147.300
771.603	147.292
771.731	146.358
771.860	147.358
771.988	145.500
772.116	146.917
772.244	145.550
772.372	146.792
772.500	146.067
772.628	146.975
772.756	142.358
772.885	145.308
773.013	145.033
773.141	140.450
773.269	146.717
773.397	144.533
773.525	146.942
773.653	143.442
773.781	144.058
773.910	143.825
774.038	141.767
774.166	142.283
774.294	143.250
774.422	140.117
774.550	143.150
774.678	143.650
774.806	141.508
774.935	142.300
775.063	140.400
775.191	142.692
775.319	139.083
775.447	141.150
775.575	138.117
775.703	140.675
775.831	141.017
775.960	139.450
776.088	138.992
776.216	139.383
776.344	138.758
776.472	139.750
776.600	138.825
776.728	136.600
776.856	139.233
776.985	137.142
777.113	138.292
777.241	138.667
777.369	137.892
777.497	134.475
777.625	137.133
777.753	135.408
777.881	135.925
778.010	133.408
778.138	134.767
778.266	134.358
778.394	135.217
778.522	134.842
778.650	135.225
778.778	132.092
778.906	133.217
779.035	134.533
779.163	132.700
779.291	132.975
779.419	134.125
779.547	133.017
779.675	133.708
779.803	132.908
779.931	133.092
780.060	134.675
780.188	132.350
780.316	134.183
780.444	133.200
780.572	132.258
780.700	131.450
780.828	131.258
780.956	132.750
781.085	132.208
781.213	130.550
781.341	132.775
781.469	129.875
781.597	130.675
781.725	129.442
781.853	128.525
781.981	130.650
782.110	130.200
782.238	128.333
782.366	129.133
782.494	127.250
782.622	129.842
782.750	130.742
782.878	129.975
783.006	130.350
783.135	129.350
783.263	126.392
783.391	127.742
783.519	127.308
783.647	127.208
783.775	128.192
783.903	128.342
784.031	126.317
784.160	127.825
784.288	126.842
784.416	126.208
784.544	126.733
784.672	125.950
784.800	126.517
784.928	124.283
785.056	125.000
785.185	125.900
785.313	124.917
785.441	123.525
785.569	125.508
785.697	126.150
785.825	125.125
785.953	125.200
786.081	125.067
786.210	124.900
786.338	122.875
786.466	123.325
786.594	124.325
786.722	124.108
786.850	124.333
786.978	122.583
787.106	123.608
787.235	121.600
787.363	125.058
787.491	121.900
787.619	121.883
787.747	122.433
787.875	122.417
788.003	121.392
788.131	120.308
788.260	120.742
788.388	120.842
788.516	120.708
788.644	120.358
788.772	121.592
788.900	121.217
789.028	120.467
789.156	121.717
789.285	120.008
789.413	120.050
789.541	120.992
789.669	120.042
789.797	118.408
789.925	121.983
790.053	119.492
790.181	118.217
790.310	119.608
790.438	120.167
790.566	119.367
790.694	119.383
790.822	120.483
790.950	120.125
791.078	119.358
791.206	118.208
791.335	119.342
791.463	119.092
791.591	119.533
791.719	118.608
791.847	117.292
791.975	117.925
792.103	116.833
792.231	118.800
792.360	117.558
792.488	117.783
792.616	118.342
792.744	118.317
792.872	116.775
793.000	116.333
793.128	118.775
793.256	117.417
793.385	116.450
793.513	118.325
793.641	117.767
793.769	116.625
793.897	115.400
794.025	117.433
794.153	116.800
794.281	116.067
794.410	114.658
794.538	116.300
794.666	116.842
794.794	114.733
794.922	115.517
795.050	114.250
795.178	114.975
795.306	113.300
795.435	114.550
795.563	116.150
795.691	114.533
795.819	114.308
795.947	114.475
796.075	115.833
796.203	115.750
796.331	114.558
796.460	114.900
796.588	115.850
796.716	114.567
796.844	114.000
796.972	114.625
797.100	113.658
797.228	114.408
797.356	115.617
797.485	114.525
797.613	113.817
797.741	113.742
797.869	113.742
797.997	114.033
798.125	114.733
798.253	114.092
798.381	114.383
798.510	114.133
798.638	112.567
798.766	112.483
798.894	112.242
799.022	112.025
799.150	112.375
799.278	112.208
799.406	113.058
799.535	113.283
799.663	111.900
799.791	111.758
799.919	112.275
800.047	112.792
800.175	113.608
800.303	111.208
800.431	111.292
800.560	111.450
800.688	111.883
800.816	112.325
800.944	110.892
801.072	112.633
801.200	112.742
801.328	111.800
801.456	112.017
801.585	112.192
801.713	110.908
801.841	111.767
801.969	112.033
802.097	112.833
802.225	111.333
802.353	111.183
802.481	111.842
802.610	111.792
802.738	111.142
802.866	111.100
802.994	110.775
803.122	110.925
803.250	111.092
803.378	111.867
803.506	111.633
803.635	110.675
803.763	110.883
803.891	112.108
804.019	110.825
804.147	111.000
804.275	110.258
804.403	110.683
804.531	110.508
804.660	110.142
804.788	110.233
804.916	109.983
805.044	109.542
805.172	111.625
805.300	109.692
805.428	110.458
805.556	111.067
805.685	111.492
805.813	111.600
805.941	109.842
806.069	110.900
806.197	110.500
806.325	109.500
806.453	110.892
806.581	111.208
806.710	109.775
806.838	108.758
806.966	109.550
807.094	109.675
807.222	110.008
807.350	110.050
807.478	110.042
807.606	108.717
807.735	108.808
807.863	109.875
807.991	108.900
808.119	109.475
808.247	109.158
808.375	109.592
808.503	108.517
808.631	109.325
808.760	109.742
808.888	108.642
809.016	109.800
809.144	109.500
809.272	109.975
809.400	109.675
809.528	109.600
809.656	107.967
809.785	107.833
809.913	108.483
810.041	108.083
810.169	109.108
810.297	108.633
810.425	108.517
810.553	107.708
810.681	109.067
810.810	108.175
810.938	109.167
811.066	107.375
811.194	108.217
811.322	108.242
811.450	108.783
811.578	108.108
811.706	108.658
811.835	107.992
811.963	107.508
812.091	108.967
812.219	108.625
812.347	107.725
812.475	108.775
812.603	107.842
812.731	107.092
812.860	108.475
812.988	109.050
813.116	107.717
813.244	107.958
813.372	108.058
813.500	108.767
813.628	109.042
813.756	106.325
813.885	107.917
814.013	107.283
814.141	108.842
814.269	106.792
814.397	107.467
814.525	106.575
814.653	108.342
814.781	107.442
814.910	107.900
815.038	108.133
815.166	107.833
815.294	106.433
815.422	108.667
815.550	106.850
815.678	107.375
815.806	107.717
815.935	107.108
816.063	106.542
816.191	106.308
816.319	107.750
816.447	107.483
816.575	107.150
816.703	107.833
816.831	107.883
816.960	108.858
817.088	106.992
817.216	107.042
817.344	107.500
817.472	107.650
817.600	106.458
817.728	106.500
817.856	107.433
817.985	106.758
818.113	107.425
818.241	107.717
818.369	106.800
818.497	107.517
818.625	108.192
818.753	106.517
818.881	107.342
819.010	106.858
819.138	107.633
819.266	106.217
819.394	106.133
819.522	105.592
819.650	107.733
819.778	106.275
819.906	106.325
820.035	106.208
820.163	106.800
820.291	105.567
820.419	105.708
820.547	107.908
820.675	105.475
820.803	106.658
820.931	106.992
821.060	105.642
821.188	107.367
821.316	106.125
821.444	106.758
821.572	106.183
821.700	107.108
821.828	106.267
821.956	106.608
822.085	106.675
822.213	106.967
822.341	106.442
822.469	105.900
822.597	105.942
822.725	106.300
822.853	105.700
822.981	105.467
823.110	107.092
823.238	105.258
823.366	106.083
823.494	105.342
823.622	105.442
823.750	106.517
823.878	104.325
824.006	106.317
824.135	106.417
824.263	107.067
824.391	106.142
824.519	106.083
824.647	106.800
824.775	107.125
824.903	106.575
825.031	107.558
825.160	106.750
825.288	106.217
825.416	106.750
825.544	106.433
825.672	106.825
825.800	107.042
825.928	106.467
826.056	106.367
826.185	105.367
826.313	106.383
826.441	105.658
826.569	104.842
826.697	106.150
826.825	105.450
826.953	106.500
827.081	105.142
827.210	104.992
827.338	104.925
827.466	104.583
827.594	106.400
827.722	105.792
827.850	106.083
827.978	105.733
828.106	105.925
828.235	106.792
828.363	106.100
828.491	105.633
828.619	105.083
828.747	105.500
828.875	106.217
829.003	105.733
829.131	106.217
829.260	106.733
829.388	104.867
829.516	106.250
829.644	106.100
829.772	106.283
829.900	105.542
830.028	105.925
830.156	105.558
830.285	105.925
830.413	105.683
830.541	106.058
830.669	105.442
830.797	104.967
830.925	105.417
831.053	104.392
831.181	105.550
831.310	105.117
831.438	105.617
831.566	105.725
831.694	105.525
831.822	104.533
831.950	105.542
832.078	105.883
832.206	105.683
832.335	105.342
832.463	105.992
832.591	106.233
832.719	105.550
832.847	105.358
832.975	104.600
833.103	106.250
833.231	105.433
833.360	105.608
833.488	105.150
833.616	104.667
833.744	104.258
833.872	105.742
834.000	106.825
834.128	106.075
834.256	105.467
834.385	105.108
834.513	105.975
834.641	103.917
834.769	104.617
834.897	105.450
835.025	104.558
835.153	103.792
835.281	104.917
835.410	105.350
835.538	105.367
835.666	104.900
835.794	104.675
835.922	105.342
836.050	105.317
836.178	105.567
836.306	104.692
836.435	104.992
836.563	104.633
836.691	104.725
836.819	105.575
836.947	104.433
837.075	104.733
837.203	104.508
837.331	105.350
837.460	105.033
837.588	104.425
837.716	105.433
837.844	105.083
837.972	104.767
838.100	104.917
838.228	104.925
838.356	103.942
838.485	102.850
838.613	104.217
838.741	104.950
838.869	104.508
838.997	105.392
839.125	103.000
839.253	103.858
839.381	105.342
839.510	104.892
839.638	105.592
839.766	103.567
839.894	104.558
840.022	105.583
840.150	105.258
840.278	103.892
840.406	104.325
840.535	104.833
840.663	103.942
840.791	103.700
840.919	104.717
841.047	104.475
841.175	104.083
841.303	104.675
841.431	105.092
841.560	104.667
841.688	104.542
841.816	104.342
841.944	104.375
842.072	104.608
842.200	104.767
842.328	105.158
842.456	104.183
842.585	105.100
842.713	104.825
842.841	104.125
842.969	104.308
843.097	104.775
843.225	103.658
843.353	105.042
843.481	104.208
843.610	104.483
843.738	104.183
843.866	103.650
