90-130-0_at_679.99nm_cut_at_1253.50Y_01.dat
24.01.2024
13:33:09
cut middle at Y: 1253.50
top cursor: 1317 down cursor: 1190 mean of: 127 lines , 2560 datapoints
wavelength(nm)	intensity[arb. units]
515.994	284.134
516.122	274.260
516.250	270.701
516.378	267.929
516.506	268.024
516.635	270.598
516.763	273.622
516.891	271.898
517.019	276.803
517.147	271.953
517.275	274.740
517.403	275.205
517.531	273.795
517.660	274.157
517.788	276.953
517.916	274.370
518.044	275.906
518.172	277.559
518.300	278.008
518.428	277.819
518.556	281.315
518.685	277.661
518.813	279.772
518.941	279.654
519.069	280.512
519.197	278.134
519.325	283.520
519.453	278.189
519.581	281.378
519.710	283.079
519.838	281.417
519.966	281.244
520.094	285.874
520.222	284.787
520.350	281.937
520.478	285.102
520.606	286.937
520.735	283.819
520.863	287.732
520.991	287.622
521.119	287.882
521.247	291.472
521.375	289.425
521.503	292.417
521.631	295.732
521.760	293.244
521.888	293.976
522.016	294.898
522.144	290.709
522.272	295.535
522.400	296.606
522.528	301.748
522.656	300.220
522.785	300.961
522.913	298.677
523.041	297.669
523.169	299.575
523.297	302.276
523.425	300.992
523.553	300.992
523.681	298.142
523.810	303.024
523.938	299.134
524.066	300.717
524.194	301.039
524.322	302.055
524.450	297.150
524.578	302.386
524.706	307.740
524.835	300.378
524.963	302.205
525.091	302.055
525.219	305.669
525.347	304.496
525.475	304.953
525.603	298.748
525.731	304.756
525.860	305.701
525.988	301.071
526.116	302.756
526.244	304.969
526.372	302.260
526.500	306.740
526.628	306.031
526.756	307.913
526.885	306.142
527.013	304.126
527.141	308.094
527.269	303.299
527.397	307.291
527.525	307.283
527.653	305.425
527.781	305.299
527.910	309.283
528.038	307.740
528.166	311.780
528.294	307.063
528.422	309.843
528.550	305.953
528.678	307.150
528.806	311.559
528.935	311.157
529.063	314.079
529.191	310.228
529.319	312.205
529.447	311.197
529.575	315.370
529.703	311.354
529.831	317.465
529.960	312.866
530.088	312.323
530.216	318.047
530.344	315.205
530.472	317.701
530.600	316.024
530.728	316.906
530.856	320.268
530.985	318.370
531.113	315.323
531.241	316.165
531.369	318.063
531.497	316.228
531.625	317.480
531.753	315.063
531.881	322.992
532.010	323.378
532.138	318.583
532.266	308.724
532.394	317.307
532.522	317.874
532.650	316.031
532.778	317.528
532.906	318.252
533.035	319.646
533.163	316.898
533.291	313.299
533.419	315.354
533.547	316.252
533.675	316.748
533.803	315.913
533.931	312.496
534.060	319.732
534.188	318.843
534.316	320.819
534.444	316.339
534.572	316.394
534.700	320.630
534.828	319.937
534.956	321.811
535.085	320.780
535.213	317.598
535.341	318.654
535.469	322.496
535.597	322.157
535.725	324.260
535.853	322.630
535.981	320.315
536.110	323.276
536.238	322.961
536.366	327.921
536.494	324.236
536.622	325.622
536.750	328.181
536.878	331.213
537.006	332.811
537.135	332.228
537.263	331.740
537.391	332.614
537.519	334.299
537.647	332.441
537.775	329.063
537.903	336.866
538.031	334.260
538.160	334.843
538.288	337.323
538.416	338.087
538.544	335.323
538.672	338.071
538.800	340.291
538.928	338.882
539.056	340.315
539.185	341.142
539.313	338.480
539.441	338.047
539.569	341.276
539.697	338.598
539.825	339.299
539.953	341.512
540.081	341.165
540.210	340.709
540.338	342.047
540.466	345.843
540.594	343.764
540.722	339.606
540.850	339.283
540.978	341.654
541.106	339.118
541.235	342.717
541.363	340.827
541.491	342.417
541.619	345.567
541.747	342.559
541.875	338.709
542.003	339.827
542.131	339.165
542.260	342.220
542.388	345.291
542.516	342.898
542.644	346.567
542.772	345.717
542.900	347.110
543.028	350.126
543.156	351.417
543.285	349.252
543.413	343.913
543.541	346.992
543.669	350.118
543.797	346.976
543.925	348.654
544.053	351.819
544.181	347.252
544.310	345.378
544.438	345.205
544.566	348.504
544.694	347.276
544.822	345.961
544.950	349.008
545.078	346.110
545.206	344.551
545.335	349.417
545.463	345.976
545.591	350.244
545.719	347.882
545.847	351.638
545.975	350.228
546.103	350.016
546.231	349.126
546.360	347.535
546.488	352.244
546.616	344.331
546.744	349.047
546.872	346.299
547.000	346.614
547.128	347.685
547.256	346.575
547.385	344.961
547.513	346.661
547.641	348.685
547.769	348.772
547.897	349.433
548.025	346.693
548.153	348.976
548.281	350.205
548.410	348.819
548.538	348.819
548.666	351.441
548.794	350.362
548.922	349.709
549.050	350.244
549.178	350.669
549.306	355.409
549.435	355.906
549.563	348.236
549.691	346.142
549.819	355.370
549.947	360.575
550.075	349.457
550.203	353.709
550.331	347.016
550.460	353.921
550.588	352.071
550.716	352.772
550.844	354.417
550.972	352.031
551.100	351.756
551.228	354.402
551.356	351.843
551.485	348.803
551.613	354.654
551.741	352.441
551.869	351.614
551.997	348.567
552.125	346.354
552.253	350.425
552.381	343.858
552.510	346.213
552.638	351.425
552.766	351.173
552.894	351.354
553.022	346.724
553.150	347.094
553.278	346.276
553.406	347.394
553.535	343.654
553.663	345.606
553.791	346.213
553.919	344.732
554.047	347.228
554.175	346.654
554.303	344.969
554.431	341.890
554.560	344.213
554.688	346.803
554.816	345.780
554.944	347.157
555.072	344.299
555.200	343.598
555.328	342.055
555.456	348.094
555.585	343.315
555.713	341.441
555.841	347.000
555.969	348.425
556.097	349.291
556.225	343.472
556.353	352.370
556.481	342.504
556.610	347.787
556.738	350.165
556.866	346.669
556.994	340.961
557.122	347.252
557.250	350.205
557.378	349.929
557.506	347.913
557.635	343.528
557.763	347.291
557.891	357.480
558.019	349.543
558.147	350.882
558.275	347.701
558.403	349.465
558.531	350.701
558.660	348.803
558.788	350.551
558.916	346.606
559.044	346.819
559.172	347.528
559.300	349.961
559.428	349.937
559.556	351.220
559.685	348.417
559.813	351.685
559.941	349.929
560.069	344.496
560.197	350.598
560.325	349.701
560.453	349.606
560.581	350.693
560.710	348.409
560.838	348.913
560.966	352.307
561.094	350.969
561.222	350.992
561.350	345.724
561.478	344.890
561.606	347.472
561.735	350.614
561.863	343.220
561.991	347.913
562.119	348.260
562.247	349.496
562.375	343.276
562.503	345.827
562.631	342.866
562.760	347.268
562.888	350.315
563.016	347.087
563.144	348.346
563.272	349.110
563.400	344.370
563.528	348.622
563.656	345.646
563.785	345.236
563.913	343.535
564.041	346.323
564.169	348.094
564.297	346.409
564.425	347.772
564.553	350.780
564.681	345.283
564.810	347.559
564.938	344.732
565.066	347.181
565.194	350.047
565.322	344.693
565.450	345.874
565.578	351.307
565.706	343.339
565.835	350.512
565.963	346.992
566.091	346.409
566.219	348.260
566.347	347.945
566.475	348.890
566.603	353.047
566.731	346.827
566.860	349.370
566.988	350.969
567.116	352.661
567.244	351.732
567.372	352.850
567.500	350.866
567.628	354.717
567.756	351.803
567.885	356.780
568.013	357.929
568.141	355.031
568.269	356.795
568.397	353.252
568.525	352.598
568.653	354.850
568.781	360.110
568.910	360.906
569.038	359.488
569.166	355.850
569.294	355.394
569.422	359.173
569.550	360.047
569.678	357.244
569.806	359.150
569.935	361.535
570.063	362.441
570.191	362.031
570.319	360.843
570.447	362.354
570.575	359.024
570.703	363.118
570.831	365.780
570.960	366.551
571.088	362.701
571.216	361.732
571.344	365.882
571.472	361.866
571.600	368.346
571.728	365.181
571.856	362.677
571.985	364.606
572.113	369.567
572.241	365.142
572.369	363.835
572.497	366.409
572.625	365.976
572.753	368.661
572.881	365.512
573.010	369.173
573.138	369.598
573.266	369.638
573.394	367.165
573.522	366.386
573.650	365.370
573.778	369.354
573.906	367.598
574.035	370.394
574.163	366.008
574.291	368.976
574.419	369.173
574.547	369.937
574.675	369.732
574.803	370.299
574.931	371.606
575.060	367.858
575.188	372.591
575.316	369.709
575.444	373.969
575.572	370.677
575.700	370.228
575.828	373.803
575.956	370.906
576.085	375.252
576.213	368.858
576.341	372.583
576.469	373.016
576.597	368.063
576.725	371.496
576.853	369.606
576.981	375.449
577.110	369.488
577.238	372.874
577.366	367.236
577.494	367.024
577.622	369.323
577.750	369.961
577.878	368.819
578.006	370.693
578.135	373.732
578.263	374.244
578.391	368.102
578.519	370.709
578.647	373.685
578.775	369.417
578.903	365.756
579.031	371.512
579.160	372.402
579.288	371.055
579.416	368.189
579.544	365.504
579.672	371.921
579.800	374.299
579.928	365.874
580.056	370.425
580.185	373.362
580.313	371.433
580.441	374.260
580.569	371.173
580.697	369.016
580.825	372.598
580.953	376.953
581.081	379.276
581.210	382.441
581.338	377.378
581.466	378.858
581.594	375.126
581.722	376.220
581.850	372.425
581.978	374.047
582.106	380.016
582.235	379.717
582.363	377.055
582.491	379.339
582.619	378.646
582.747	381.559
582.875	381.244
583.003	383.929
583.131	384.362
583.260	384.701
583.388	382.598
583.516	386.457
583.644	386.031
583.772	389.260
583.900	387.094
584.028	390.575
584.156	388.000
584.285	391.000
584.413	390.858
584.541	390.630
584.669	387.118
584.797	393.543
584.925	391.472
585.053	393.937
585.181	392.583
585.310	397.528
585.438	399.346
585.566	396.157
585.694	398.984
585.822	401.472
585.950	398.646
586.078	400.921
586.206	405.583
586.335	396.803
586.463	401.638
586.591	405.134
586.719	400.181
586.847	400.165
586.975	406.992
587.103	402.110
587.231	407.693
587.360	407.094
587.488	404.220
587.616	405.457
587.744	408.646
587.872	404.386
588.000	402.583
588.128	409.520
588.256	411.638
588.385	405.039
588.513	405.457
588.641	411.551
588.769	410.394
588.897	407.559
589.025	409.669
589.153	411.969
589.281	406.858
589.410	408.449
589.538	406.213
589.666	410.362
589.794	410.299
589.922	411.803
590.050	412.622
590.178	409.150
590.306	407.252
590.435	409.882
590.563	405.961
590.691	409.614
590.819	412.685
590.947	414.669
591.075	412.780
591.203	410.685
591.331	412.929
591.460	415.787
591.588	407.591
591.716	413.748
591.844	412.906
591.972	415.622
592.100	411.189
592.228	409.661
592.356	411.606
592.485	412.150
592.613	412.780
592.741	413.614
592.869	412.071
592.997	411.244
593.125	417.063
593.253	420.150
593.381	416.307
593.510	417.220
593.638	418.157
593.766	415.874
593.894	421.110
594.022	415.480
594.150	415.787
594.278	427.063
594.406	413.449
594.535	420.094
594.663	421.362
594.791	423.992
594.919	420.488
595.047	425.575
595.175	428.370
595.303	420.079
595.431	424.024
595.560	425.843
595.688	430.811
595.816	424.346
595.944	428.717
596.072	431.370
596.200	427.866
596.328	423.000
596.456	431.031
596.585	429.150
596.713	427.787
596.841	423.630
596.969	429.976
597.097	434.701
597.225	435.457
597.353	435.087
597.481	426.795
597.610	433.165
597.738	430.819
597.866	433.173
597.994	435.134
598.122	434.709
598.250	434.197
598.378	433.961
598.506	436.228
598.635	434.630
598.763	435.906
598.891	435.071
599.019	436.126
599.147	431.220
599.275	438.197
599.403	431.528
599.531	439.457
599.660	439.283
599.788	440.583
599.916	438.260
600.044	433.378
600.172	435.866
600.300	437.543
600.428	436.055
600.556	436.520
600.685	438.921
600.813	440.449
600.941	445.417
601.069	445.268
601.197	444.346
601.325	443.992
601.453	446.866
601.581	439.504
601.710	444.394
601.838	446.008
601.966	441.646
602.094	444.157
602.222	446.528
602.350	444.598
602.478	451.614
602.606	456.079
602.735	450.732
602.863	451.953
602.991	454.803
603.119	456.512
603.247	451.984
603.375	451.819
603.503	452.535
603.631	453.835
603.760	456.559
603.888	457.260
604.016	459.945
604.144	452.362
604.272	460.819
604.400	457.362
604.528	454.772
604.656	464.740
604.785	460.472
604.913	465.717
605.041	465.795
605.169	460.591
605.297	460.409
605.425	463.740
605.553	464.913
605.681	465.654
605.810	465.181
605.938	465.717
606.066	464.827
606.194	467.953
606.322	467.764
606.450	466.134
606.578	465.559
606.706	468.945
606.835	467.693
606.963	469.110
607.091	469.260
607.219	467.339
607.347	464.961
607.475	471.535
607.603	474.661
607.731	468.150
607.860	466.866
607.988	474.559
608.116	472.441
608.244	472.157
608.372	467.866
608.500	474.929
608.628	472.661
608.756	471.079
608.885	469.291
609.013	472.465
609.141	471.465
609.269	470.984
609.397	471.913
609.525	469.181
609.653	471.102
609.781	469.102
609.910	472.055
610.038	466.307
610.166	468.118
610.294	468.197
610.422	473.402
610.550	470.213
610.678	468.346
610.806	468.417
610.935	473.370
611.063	471.850
611.191	470.543
611.319	474.567
611.447	471.583
611.575	471.449
611.703	470.874
611.831	473.866
611.960	470.339
612.088	471.346
612.216	474.693
612.344	477.488
612.472	471.693
612.600	472.693
612.728	469.276
612.856	473.394
612.985	468.961
613.113	467.181
613.241	472.945
613.369	468.016
613.497	474.346
613.625	469.740
613.753	471.299
613.881	473.898
614.010	473.677
614.138	470.031
614.266	469.220
614.394	476.567
614.522	469.890
614.650	475.307
614.778	470.449
614.906	476.929
615.035	469.071
615.163	472.449
615.291	473.850
615.419	475.984
615.547	474.614
615.675	473.756
615.803	468.394
615.931	480.480
616.060	479.890
616.188	474.850
616.316	470.071
616.444	473.677
616.572	479.898
616.700	474.094
616.828	476.929
616.956	481.780
617.085	480.031
617.213	479.811
617.341	479.614
617.469	479.409
617.597	481.835
617.725	482.685
617.853	476.740
617.981	479.283
618.110	482.535
618.238	477.850
618.366	480.362
618.494	488.465
618.622	482.701
618.750	483.740
618.878	483.961
619.006	483.827
619.135	488.661
619.263	484.937
619.391	486.591
619.519	487.685
619.647	488.260
619.775	494.921
619.903	491.157
620.031	490.811
620.160	490.811
620.288	490.228
620.416	492.528
620.544	493.354
620.672	493.126
620.800	494.189
620.928	497.126
621.056	494.583
621.185	488.835
621.313	493.260
621.441	505.764
621.569	503.409
621.697	492.346
621.825	503.740
621.953	502.606
622.081	503.346
622.210	498.646
622.338	498.094
622.466	504.937
622.594	509.276
622.722	508.220
622.850	507.630
622.978	504.094
623.106	501.362
623.235	504.480
623.363	504.866
623.491	512.354
623.619	503.181
623.747	510.417
623.875	505.449
624.003	502.937
624.131	508.307
624.260	505.866
624.388	509.976
624.516	506.890
624.644	509.787
624.772	505.913
624.900	508.472
625.028	504.181
625.156	513.110
625.285	507.969
625.413	510.866
625.541	504.717
625.669	510.094
625.797	511.740
625.925	514.748
626.053	507.756
626.181	507.425
626.310	511.354
626.438	506.591
626.566	514.063
626.694	509.638
626.822	510.551
626.950	511.252
627.078	510.551
627.206	507.638
627.335	509.748
627.463	515.402
627.591	507.433
627.719	513.134
627.847	508.331
627.975	513.394
628.103	506.638
628.231	512.496
628.360	508.748
628.488	511.795
628.616	509.567
628.744	509.260
628.872	513.315
629.000	503.228
629.128	513.906
629.256	520.354
629.385	511.598
629.513	511.575
629.641	514.008
629.769	512.575
629.897	512.583
630.025	512.764
630.153	515.677
630.281	513.276
630.410	512.063
630.538	515.598
630.666	514.677
630.794	514.102
630.922	512.386
631.050	510.354
631.178	513.189
631.306	509.921
631.435	516.638
631.563	509.693
631.691	510.425
631.819	512.118
631.947	514.441
632.075	517.551
632.203	519.661
632.331	514.094
632.460	512.874
632.588	514.976
632.716	517.835
632.844	514.425
632.972	517.929
633.100	514.614
633.228	513.701
633.356	514.528
633.485	518.953
633.613	516.339
633.741	517.945
633.869	515.425
633.997	518.362
634.125	510.795
634.253	507.921
634.381	514.827
634.510	518.339
634.638	508.488
634.766	516.417
634.894	512.094
635.022	511.740
635.150	508.559
635.278	522.921
635.406	515.441
635.535	515.693
635.663	512.630
635.791	512.386
635.919	518.134
636.047	512.677
636.175	512.803
636.303	515.835
636.431	516.394
636.560	515.236
636.688	519.031
636.816	516.024
636.944	511.039
637.072	519.850
637.200	512.441
637.328	508.465
637.456	518.929
637.585	505.205
637.713	514.622
637.841	513.189
637.969	510.740
638.097	511.047
638.225	517.488
638.353	515.449
638.481	520.315
638.610	513.331
638.738	516.378
638.866	513.339
638.994	517.622
639.122	513.205
639.250	518.008
639.378	515.598
639.506	514.819
639.635	517.803
639.763	512.134
639.891	513.024
640.019	514.701
640.147	511.969
640.275	515.756
640.403	513.764
640.531	512.961
640.660	519.354
640.788	514.512
640.916	512.646
641.044	521.016
641.172	517.701
641.300	521.150
641.428	517.252
641.556	519.150
641.685	515.614
641.813	519.008
641.941	517.087
642.069	515.276
642.197	515.535
642.325	514.094
642.453	520.669
642.581	518.764
642.710	516.252
642.838	523.354
642.966	519.795
643.094	517.638
643.222	524.087
643.350	519.945
643.478	524.126
643.606	520.543
643.735	523.630
643.863	521.551
643.991	525.575
644.119	533.142
644.247	528.709
644.375	527.551
644.503	527.520
644.631	518.984
644.760	524.126
644.888	527.709
645.016	526.472
645.144	528.551
645.272	525.976
645.400	526.213
645.528	530.063
645.656	521.850
645.785	528.591
645.913	529.189
646.041	531.811
646.169	522.866
646.297	523.110
646.425	527.394
646.553	523.331
646.681	523.480
646.810	530.795
646.938	530.787
647.066	523.780
647.194	521.866
647.322	523.126
647.450	522.102
647.578	528.992
647.706	526.134
647.835	525.528
647.963	522.551
648.091	525.457
648.219	524.417
648.347	521.528
648.475	526.748
648.603	522.606
648.731	525.449
648.860	518.000
648.988	526.543
649.116	525.488
649.244	514.559
649.372	516.913
649.500	521.354
649.628	524.394
649.756	514.425
649.885	518.890
650.013	515.150
650.141	513.764
650.269	516.228
650.397	516.661
650.525	513.795
650.653	515.315
650.781	512.417
650.910	510.921
651.038	508.748
651.166	511.000
651.294	510.693
651.422	510.929
651.550	509.701
651.678	505.803
651.806	504.110
651.935	508.150
652.063	505.945
652.191	503.677
652.319	506.055
652.447	501.732
652.575	502.748
652.703	499.268
652.831	500.173
652.960	498.701
653.088	500.276
653.216	495.142
653.344	498.402
653.472	503.953
653.600	496.063
653.728	499.134
653.856	493.409
653.985	493.110
654.113	495.433
654.241	494.244
654.369	490.669
654.497	498.150
654.625	494.252
654.753	491.630
654.881	489.465
655.010	490.803
655.138	490.055
655.266	490.614
655.394	485.299
655.522	486.236
655.650	482.661
655.778	492.000
655.906	491.063
656.035	484.567
656.163	484.874
656.291	492.457
656.419	487.567
656.547	493.173
656.675	482.543
656.803	485.173
656.931	487.606
657.060	488.118
657.188	486.465
657.316	486.748
657.444	481.693
657.572	485.024
657.700	484.071
657.828	487.031
657.956	487.969
658.085	493.000
658.213	481.268
658.341	481.449
658.469	484.173
658.597	483.496
658.725	484.717
658.853	476.874
658.981	481.661
659.110	480.764
659.238	482.307
659.366	480.496
659.494	477.402
659.622	477.118
659.750	478.764
659.878	480.331
660.006	479.260
660.135	476.063
660.263	475.709
660.391	479.189
660.519	480.559
660.647	479.898
660.775	477.394
660.903	473.094
661.031	473.441
661.160	477.087
661.288	478.756
661.416	477.606
661.544	476.323
661.672	471.315
661.800	478.197
661.928	469.685
662.056	471.858
662.185	470.913
662.313	470.094
662.441	470.425
662.569	467.512
662.697	477.638
662.825	473.142
662.953	476.000
663.081	473.764
663.210	478.748
663.338	482.661
663.466	469.874
663.594	465.669
663.722	469.362
663.850	469.890
663.978	468.299
664.106	469.488
664.235	473.906
664.363	472.307
664.491	466.669
664.619	467.992
664.747	470.039
664.875	466.504
665.003	465.551
665.131	472.866
665.260	474.890
665.388	463.764
665.516	466.961
665.644	465.425
665.772	463.724
665.900	468.732
666.028	466.024
666.156	465.543
666.285	466.094
666.413	468.732
666.541	466.795
666.669	465.937
666.797	462.102
666.925	459.630
667.053	467.528
667.181	461.299
667.310	457.472
667.438	464.213
667.566	464.465
667.694	458.512
667.822	463.205
667.950	463.724
668.078	457.425
668.206	463.843
668.335	464.402
668.463	464.047
668.591	462.709
668.719	459.504
668.847	452.882
668.975	458.795
669.103	456.764
669.231	456.268
669.360	459.646
669.488	462.236
669.616	459.512
669.744	460.850
669.872	461.354
670.000	459.394
670.128	455.417
670.256	453.803
670.385	456.047
670.513	461.362
670.641	456.811
670.769	455.559
670.897	446.409
671.025	452.000
671.153	454.583
671.281	454.850
671.410	453.559
671.538	453.409
671.666	448.118
671.794	448.630
671.922	451.283
672.050	449.795
672.178	449.969
672.306	448.496
672.435	449.087
672.563	448.386
672.691	442.425
672.819	451.409
672.947	443.748
673.075	444.874
673.203	441.906
673.331	441.346
673.460	440.008
673.588	448.063
673.716	441.929
673.844	441.071
673.972	438.913
674.100	442.866
674.228	443.677
674.356	434.732
674.485	439.976
674.613	434.803
674.741	434.709
674.869	441.677
674.997	435.307
675.125	435.724
675.253	434.110
675.381	432.559
675.510	429.260
675.638	435.496
675.766	434.709
675.894	434.543
676.022	430.315
676.150	430.071
676.278	429.827
676.406	426.189
676.535	428.677
676.663	427.102
676.791	428.969
676.919	426.150
677.047	423.362
677.175	422.598
677.303	423.898
677.431	423.236
677.560	418.638
677.688	424.496
677.816	419.646
677.944	419.394
678.072	419.197
678.200	415.425
678.328	415.276
678.456	412.094
678.585	417.787
678.713	417.520
678.841	416.094
678.969	412.173
679.097	420.047
679.225	415.890
679.353	412.835
679.481	408.323
679.610	410.748
679.738	409.339
679.866	408.236
679.994	409.646
680.122	407.913
680.250	405.803
680.378	399.913
680.506	401.299
680.635	404.260
680.763	406.472
680.891	402.504
681.019	408.598
681.147	402.457
681.275	401.228
681.403	399.512
681.531	403.260
681.660	401.000
681.788	395.874
681.916	400.630
682.044	402.252
682.172	395.890
682.300	397.984
682.428	393.150
682.556	397.803
682.685	397.055
682.813	397.087
682.941	393.000
683.069	390.283
683.197	396.024
683.325	389.921
683.453	394.417
683.581	391.386
683.710	391.520
683.838	392.913
683.966	390.622
684.094	392.016
684.222	392.315
684.350	387.291
684.478	390.205
684.606	390.906
684.735	392.181
684.863	389.102
684.991	387.260
685.119	386.409
685.247	384.142
685.375	383.480
685.503	388.465
685.631	381.063
685.760	382.457
685.888	387.480
686.016	381.346
686.144	386.606
686.272	381.535
686.400	383.016
686.528	384.488
686.656	379.803
686.785	382.228
686.913	387.764
687.041	379.937
687.169	378.795
687.297	378.890
687.425	378.157
687.553	378.567
687.681	382.457
687.810	380.843
687.938	378.063
688.066	381.087
688.194	379.181
688.322	379.795
688.450	373.409
688.578	377.252
688.706	376.795
688.835	376.945
688.963	377.480
689.091	379.425
689.219	373.929
689.347	376.528
689.475	375.906
689.603	373.331
689.731	375.740
689.860	373.598
689.988	379.559
690.116	373.386
690.244	372.646
690.372	378.669
690.500	370.606
690.628	372.402
690.756	371.764
690.885	370.835
691.013	367.488
691.141	375.535
691.269	372.929
691.397	371.528
691.525	369.937
691.653	371.780
691.781	373.181
691.910	371.142
692.038	369.906
692.166	368.433
692.294	370.953
692.422	369.354
692.550	368.228
692.678	364.701
692.806	366.819
692.935	365.386
693.063	364.520
693.191	362.551
693.319	366.244
693.447	363.827
693.575	366.669
693.703	364.520
693.831	361.425
693.960	367.425
694.088	366.063
694.216	360.087
694.344	366.638
694.472	361.724
694.600	358.402
694.728	359.331
694.856	356.976
694.985	359.228
695.113	357.764
695.241	354.961
695.369	355.843
695.497	358.102
695.625	362.472
695.753	354.709
695.881	352.882
696.010	351.583
696.138	355.031
696.266	352.591
696.394	351.110
696.522	351.535
696.650	345.748
696.778	350.756
696.906	349.961
697.035	349.291
697.163	348.299
697.291	347.213
697.419	343.520
697.547	343.386
697.675	348.598
697.803	343.047
697.931	343.677
698.060	340.945
698.188	342.055
698.316	343.402
698.444	340.181
698.572	341.205
698.700	342.929
698.828	341.047
698.956	332.197
699.085	336.843
699.213	334.252
699.341	336.685
699.469	336.173
699.597	342.583
699.725	339.102
699.853	328.898
699.981	332.835
700.110	328.394
700.238	332.228
700.366	327.693
700.494	330.535
700.622	330.283
700.750	328.346
700.878	331.906
701.006	329.339
701.135	327.748
701.263	330.378
701.391	324.039
701.519	330.512
701.647	325.504
701.775	328.858
701.903	325.543
702.031	322.543
702.160	328.598
702.288	324.142
702.416	324.614
702.544	322.614
702.672	324.134
702.800	319.937
702.928	321.898
703.056	323.575
703.185	320.260
703.313	319.843
703.441	320.646
703.569	314.772
703.697	319.307
703.825	317.449
703.953	317.276
704.081	318.803
704.210	314.449
704.338	318.520
704.466	311.701
704.594	315.079
704.722	313.252
704.850	311.748
704.978	314.417
705.106	313.465
705.235	309.992
705.363	308.283
705.491	308.882
705.619	308.071
705.747	309.748
705.875	313.449
706.003	305.173
706.131	308.000
706.260	306.591
706.388	303.740
706.516	305.118
706.644	302.654
706.772	303.906
706.900	302.795
707.028	300.976
707.156	302.299
707.285	302.685
707.413	299.614
707.541	297.535
707.669	299.512
707.797	296.220
707.925	294.165
708.053	297.457
708.181	298.087
708.310	297.307
708.438	293.362
708.566	293.646
708.694	295.772
708.822	294.457
708.950	291.835
709.078	292.315
709.206	291.575
709.335	290.323
709.463	287.819
709.591	286.921
709.719	288.213
709.847	288.197
709.975	287.850
710.103	286.858
710.231	284.165
710.360	284.291
710.488	286.016
710.616	287.433
710.744	283.780
710.872	284.551
711.000	281.622
711.128	281.189
711.256	276.339
711.385	280.567
711.513	278.575
711.641	279.157
711.769	276.787
711.897	278.283
712.025	271.520
712.153	275.669
712.281	276.803
712.410	275.591
712.538	276.606
712.666	276.535
712.794	278.669
712.922	276.591
713.050	276.701
713.178	268.787
713.306	271.976
713.435	272.661
713.563	269.433
713.691	272.685
713.819	271.575
713.947	266.591
714.075	265.961
714.203	271.614
714.331	266.819
714.460	268.732
714.588	267.661
714.716	267.512
714.844	265.661
714.972	261.559
715.100	266.409
715.228	270.126
715.356	265.299
715.485	264.150
715.613	262.433
715.741	263.331
715.869	259.323
715.997	264.661
716.125	261.425
716.253	261.433
716.381	264.709
716.510	260.079
716.638	262.622
716.766	257.559
716.894	259.354
717.022	259.898
717.150	256.724
717.278	258.252
717.406	259.016
717.535	257.787
717.663	260.661
717.791	255.378
717.919	258.000
718.047	257.504
718.175	256.417
718.303	257.913
718.431	253.165
718.560	253.268
718.688	253.890
718.816	251.646
718.944	251.937
719.072	252.126
719.200	251.850
719.328	254.535
719.456	252.134
719.585	253.134
719.713	250.370
719.841	251.197
719.969	249.354
720.097	251.087
720.225	247.890
720.353	248.449
720.481	251.063
720.610	248.339
720.738	245.654
720.866	245.394
720.994	250.055
721.122	249.646
721.250	246.465
721.378	244.441
721.506	242.866
721.635	242.669
721.763	243.307
721.891	245.197
722.019	244.890
722.147	242.409
722.275	242.465
722.403	245.110
722.531	243.228
722.660	241.543
722.788	244.953
722.916	241.622
723.044	241.669
723.172	240.969
723.300	239.291
723.428	243.142
723.556	240.039
723.685	241.134
723.813	237.031
723.941	238.039
724.069	236.693
724.197	237.559
724.325	235.370
724.453	236.402
724.581	234.567
724.710	234.165
724.838	234.339
724.966	228.528
725.094	231.094
725.222	232.150
725.350	233.118
725.478	232.449
725.606	227.866
725.735	230.094
725.863	229.756
725.991	228.843
726.119	229.732
726.247	229.465
726.375	229.575
726.503	229.496
726.631	229.843
726.760	226.063
726.888	226.142
727.016	225.071
727.144	224.220
727.272	223.780
727.400	226.819
727.528	224.118
727.656	222.236
727.785	217.953
727.913	222.567
728.041	220.606
728.169	227.472
728.297	221.504
728.425	220.803
728.553	223.260
728.681	214.528
728.810	218.795
728.938	217.118
729.066	217.890
729.194	222.110
729.322	218.504
729.450	216.740
729.578	216.039
729.706	213.528
729.835	218.472
729.963	215.307
730.091	215.409
730.219	217.472
730.347	216.882
730.475	213.409
730.603	212.181
730.731	213.189
730.860	211.835
730.988	211.764
731.116	211.921
731.244	211.520
731.372	213.378
731.500	210.071
731.628	212.693
731.756	209.425
731.885	210.535
732.013	210.110
732.141	207.787
732.269	208.717
732.397	209.929
732.525	207.071
732.653	208.724
732.781	203.394
732.910	209.283
733.038	206.457
733.166	204.937
733.294	207.496
733.422	207.291
733.550	207.378
733.678	206.299
733.806	209.031
733.935	205.425
734.063	207.921
734.191	205.606
734.319	202.630
734.447	202.858
734.575	202.220
734.703	200.205
734.831	201.748
734.960	203.362
735.088	199.181
735.216	203.992
735.344	200.441
735.472	200.764
735.600	198.969
735.728	199.850
735.856	198.559
735.985	198.276
736.113	199.449
736.241	197.827
736.369	199.276
736.497	199.425
736.625	200.449
736.753	196.724
736.881	197.961
737.010	197.228
737.138	194.969
737.266	194.535
737.394	196.929
737.522	199.386
737.650	195.520
737.778	196.488
737.906	194.551
738.035	192.756
738.163	196.559
738.291	195.346
738.419	193.756
738.547	193.457
738.675	195.386
738.803	191.732
738.931	188.709
739.060	195.102
739.188	195.394
739.316	191.457
739.444	191.299
739.572	189.961
739.700	191.346
739.828	191.976
739.956	189.583
740.085	191.386
740.213	192.291
740.341	189.071
740.469	190.008
740.597	189.488
740.725	193.213
740.853	189.480
740.981	186.913
741.110	186.307
741.238	188.677
741.366	192.173
741.494	187.016
741.622	186.465
741.750	189.449
741.878	191.016
742.006	187.764
742.135	187.898
742.263	187.094
742.391	184.480
742.519	189.165
742.647	185.654
742.775	190.764
742.903	186.945
743.031	185.913
743.160	185.315
743.288	185.921
743.416	184.512
743.544	183.622
743.672	185.638
743.800	186.063
743.928	183.598
744.056	183.701
744.185	184.094
744.313	184.732
744.441	182.937
744.569	184.236
744.697	184.055
744.825	184.874
744.953	183.843
745.081	183.583
745.210	184.480
745.338	181.811
745.466	180.283
745.594	183.165
745.722	183.157
745.850	182.535
745.978	185.543
746.106	181.559
746.235	185.142
746.363	182.472
746.491	182.024
746.619	182.724
746.747	181.087
746.875	180.685
747.003	181.047
747.131	179.472
747.260	178.378
747.388	179.740
747.516	181.472
747.644	179.835
747.772	179.362
747.900	181.205
748.028	180.118
748.156	176.559
748.285	179.236
748.413	176.709
748.541	179.134
748.669	177.276
748.797	178.307
748.925	176.291
749.053	174.276
749.181	174.543
749.310	176.299
749.438	174.906
749.566	175.488
749.694	177.150
749.822	175.638
749.950	176.031
750.078	175.898
750.206	173.717
750.335	175.677
750.463	176.512
750.591	173.567
750.719	174.630
750.847	175.024
750.975	171.260
751.103	172.283
751.231	175.370
751.360	172.961
751.488	172.559
751.616	171.094
751.744	171.646
751.872	168.835
752.000	171.512
752.128	170.803
752.256	171.661
752.385	169.331
752.513	170.024
752.641	166.157
752.769	168.780
752.897	171.346
753.025	164.945
753.153	169.543
753.281	168.228
753.410	166.945
753.538	169.528
753.666	168.016
753.794	166.945
753.922	168.496
754.050	168.827
754.178	166.953
754.306	165.654
754.435	167.063
754.563	167.063
754.691	165.260
754.819	164.244
754.947	167.362
755.075	168.071
755.203	165.866
755.331	166.134
755.460	164.661
755.588	164.362
755.716	163.449
755.844	163.197
755.972	163.961
756.100	164.386
756.228	165.307
756.356	165.126
756.485	163.472
756.613	164.803
756.741	162.378
756.869	161.913
756.997	162.685
757.125	164.370
757.253	163.551
757.381	161.969
757.510	161.173
757.638	162.646
757.766	162.504
757.894	161.717
758.022	160.953
758.150	162.283
758.278	160.669
758.406	158.654
758.535	162.417
758.663	161.732
758.791	163.882
758.919	160.205
759.047	161.630
759.175	160.772
759.303	159.118
759.431	155.756
759.560	158.764
759.688	158.598
759.816	160.268
759.944	160.701
760.072	158.787
760.200	157.402
760.328	160.606
760.456	157.394
760.585	157.425
760.713	157.276
760.841	158.811
760.969	158.024
761.097	158.228
761.225	156.921
761.353	157.913
761.481	157.268
761.610	158.024
761.738	158.465
761.866	159.118
761.994	154.992
762.122	155.441
762.250	156.937
762.378	156.016
762.506	155.031
762.635	155.496
762.763	155.150
762.891	155.205
763.019	154.953
763.147	156.850
763.275	154.543
763.403	154.921
763.531	154.134
763.660	156.780
763.788	153.016
763.916	154.787
764.044	153.598
764.172	156.394
764.300	153.220
764.428	153.543
764.556	153.220
764.685	153.417
764.813	151.882
764.941	152.118
765.069	155.079
765.197	153.370
765.325	149.874
765.453	153.890
765.581	154.795
765.710	152.102
765.838	151.787
765.966	153.772
766.094	151.701
766.222	151.543
766.350	151.055
766.478	152.394
766.606	151.472
766.735	150.008
766.863	150.551
766.991	150.772
767.119	151.354
767.247	151.512
767.375	150.323
767.503	152.732
767.631	152.598
767.760	149.213
767.888	150.646
768.016	153.126
768.144	149.394
768.272	149.496
768.400	150.252
768.528	148.236
768.656	150.307
768.785	149.008
768.913	149.567
769.041	151.504
769.169	149.528
769.297	151.205
769.425	150.386
769.553	149.472
769.681	149.472
769.810	150.976
769.938	149.787
770.066	147.559
770.194	148.661
770.322	149.677
770.450	150.717
770.578	149.543
770.706	148.386
770.835	150.480
770.963	146.961
771.091	147.756
771.219	146.756
771.347	149.622
771.475	146.252
771.603	146.472
771.731	149.181
771.860	148.189
771.988	146.362
772.116	146.780
772.244	147.031
772.372	148.409
772.500	148.071
772.628	149.039
772.756	143.504
772.885	149.827
773.013	148.260
773.141	146.646
773.269	146.488
773.397	147.079
773.525	146.827
773.653	148.803
773.781	145.299
773.910	145.598
774.038	145.937
774.166	143.882
774.294	146.677
774.422	144.591
774.550	146.787
774.678	147.197
774.806	143.339
774.935	148.016
775.063	146.575
775.191	144.756
775.319	147.055
775.447	146.268
775.575	144.740
775.703	147.055
775.831	147.189
775.960	145.197
776.088	144.677
776.216	145.858
776.344	144.181
776.472	144.189
776.600	145.606
776.728	144.016
776.856	143.921
776.985	145.126
777.113	144.504
777.241	143.787
777.369	141.598
777.497	141.331
777.625	144.512
777.753	144.236
777.881	142.929
778.010	142.575
778.138	143.260
778.266	142.402
778.394	143.354
778.522	144.055
778.650	142.504
778.778	142.551
778.906	142.008
779.035	142.787
779.163	142.457
779.291	141.740
779.419	143.016
779.547	142.520
779.675	141.937
779.803	141.921
779.931	141.646
780.060	142.173
780.188	140.283
780.316	141.157
780.444	143.496
780.572	140.740
780.700	142.835
780.828	140.244
780.956	140.976
781.085	140.945
781.213	139.685
781.341	142.402
781.469	141.496
781.597	140.354
781.725	140.921
781.853	139.543
781.981	140.409
782.110	141.409
782.238	139.850
782.366	139.512
782.494	140.094
782.622	138.945
782.750	141.449
782.878	141.039
783.006	140.685
783.135	138.992
783.263	138.874
783.391	139.535
783.519	140.701
783.647	141.378
783.775	139.480
783.903	138.937
784.031	138.425
784.160	139.417
784.288	137.252
784.416	137.717
784.544	136.236
784.672	136.323
784.800	137.724
784.928	136.669
785.056	136.039
785.185	137.024
785.313	135.819
785.441	135.488
785.569	137.276
785.697	139.717
785.825	136.315
785.953	137.417
786.081	136.748
786.210	137.189
786.338	136.150
786.466	136.039
786.594	134.425
786.722	136.047
786.850	135.354
786.978	134.646
787.106	134.433
787.235	134.000
787.363	138.142
787.491	134.480
787.619	134.685
787.747	134.937
787.875	133.819
788.003	134.669
788.131	132.921
788.260	134.189
788.388	134.126
788.516	132.118
788.644	134.213
788.772	133.535
788.900	135.945
789.028	133.811
789.156	132.835
789.285	132.339
789.413	131.583
789.541	134.402
789.669	131.567
789.797	131.819
789.925	133.039
790.053	132.780
790.181	133.551
790.310	132.276
790.438	133.583
790.566	132.047
790.694	132.354
790.822	132.134
790.950	132.197
791.078	130.551
791.206	129.803
791.335	130.740
791.463	133.575
791.591	131.669
791.719	132.701
791.847	130.323
791.975	128.709
792.103	130.843
792.231	130.661
792.360	130.591
792.488	130.811
792.616	131.087
792.744	132.819
792.872	129.591
793.000	131.591
793.128	128.669
793.256	131.024
793.385	128.693
793.513	129.984
793.641	131.622
793.769	130.638
793.897	128.835
794.025	131.835
794.153	130.008
794.281	130.669
794.410	129.780
794.538	131.339
794.666	128.165
794.794	130.165
794.922	128.402
795.050	129.134
795.178	130.189
795.306	127.244
795.435	127.150
795.563	128.764
795.691	126.079
795.819	127.008
795.947	127.638
796.075	126.370
796.203	127.528
796.331	127.157
796.460	125.213
796.588	127.449
796.716	126.803
796.844	127.236
796.972	126.858
797.100	127.858
797.228	126.449
797.356	127.488
797.485	127.929
797.613	127.079
797.741	128.346
797.869	126.118
797.997	126.693
798.125	126.402
798.253	127.244
798.381	125.433
798.510	126.780
798.638	126.394
798.766	125.535
798.894	126.803
799.022	125.142
799.150	125.764
799.278	125.984
799.406	126.843
799.535	125.063
799.663	126.409
799.791	125.283
799.919	125.039
800.047	125.480
800.175	124.189
800.303	126.449
800.431	125.488
800.560	124.685
800.688	124.181
800.816	125.157
800.944	124.236
801.072	125.354
801.200	125.000
801.328	124.283
801.456	123.480
801.585	125.354
801.713	123.496
801.841	124.205
801.969	125.346
802.097	124.811
802.225	123.724
802.353	124.472
802.481	124.339
802.610	125.402
802.738	124.457
802.866	123.701
802.994	123.677
803.122	122.575
803.250	124.795
803.378	123.142
803.506	124.370
803.635	123.433
803.763	123.764
803.891	124.512
804.019	121.457
804.147	125.118
804.275	123.441
804.403	123.008
804.531	123.173
804.660	121.764
804.788	121.795
804.916	121.724
805.044	123.071
805.172	123.165
805.300	121.118
805.428	120.858
805.556	122.165
805.685	123.346
805.813	121.953
805.941	121.811
806.069	122.394
806.197	122.126
806.325	120.213
806.453	122.362
806.581	121.102
806.710	121.307
806.838	121.764
806.966	120.575
807.094	121.346
807.222	121.827
807.350	120.803
807.478	120.953
807.606	123.197
807.735	121.402
807.863	120.520
807.991	121.953
808.119	120.898
808.247	120.441
808.375	120.268
808.503	119.622
808.631	122.441
808.760	119.354
808.888	119.268
809.016	119.654
809.144	119.843
809.272	120.819
809.400	122.252
809.528	121.079
809.656	120.465
809.785	119.480
809.913	120.339
810.041	118.953
810.169	119.071
810.297	119.087
810.425	120.157
810.553	118.362
810.681	120.732
810.810	120.024
810.938	118.701
811.066	119.276
811.194	119.425
811.322	119.496
811.450	118.370
811.578	120.031
811.706	118.551
811.835	118.866
811.963	119.394
812.091	118.843
812.219	120.071
812.347	119.583
812.475	118.433
812.603	120.063
812.731	118.937
812.860	119.764
812.988	119.874
813.116	119.402
813.244	118.748
813.372	118.299
813.500	117.969
813.628	117.472
813.756	116.354
813.885	117.756
814.013	119.504
814.141	118.551
814.269	117.465
814.397	117.756
814.525	117.055
814.653	117.740
814.781	116.252
814.910	117.197
815.038	117.606
815.166	117.465
815.294	115.717
815.422	117.961
815.550	117.661
815.678	117.457
815.806	118.622
815.935	116.465
816.063	116.472
816.191	117.063
816.319	117.480
816.447	117.512
816.575	117.346
816.703	115.976
816.831	116.268
816.960	118.094
817.088	116.969
817.216	116.835
817.344	115.953
817.472	116.528
817.600	116.425
817.728	115.575
817.856	116.252
817.985	116.638
818.113	114.803
818.241	115.535
818.369	114.055
818.497	117.181
818.625	116.197
818.753	116.173
818.881	116.756
819.010	115.654
819.138	115.906
819.266	114.827
819.394	115.354
819.522	114.913
819.650	116.795
819.778	115.008
819.906	115.457
820.035	116.835
820.163	115.000
820.291	114.213
820.419	114.929
820.547	114.472
820.675	114.874
820.803	115.512
820.931	115.016
821.060	113.732
821.188	115.874
821.316	113.417
821.444	115.299
821.572	114.236
821.700	114.197
821.828	113.827
821.956	115.228
822.085	114.307
822.213	114.843
822.341	113.236
822.469	113.685
822.597	113.488
822.725	113.575
822.853	114.496
822.981	113.717
823.110	114.598
823.238	113.748
823.366	113.646
823.494	112.425
823.622	112.969
823.750	113.047
823.878	113.102
824.006	114.890
824.135	113.394
824.263	113.433
824.391	112.638
824.519	113.929
824.647	113.835
824.775	113.685
824.903	114.165
825.031	113.323
825.160	113.819
825.288	113.457
825.416	113.528
825.544	113.236
825.672	114.331
825.800	114.724
825.928	114.142
826.056	113.567
826.185	113.709
826.313	113.417
826.441	112.291
826.569	112.638
826.697	111.913
826.825	112.890
826.953	113.228
827.081	112.354
827.210	113.165
827.338	111.685
827.466	111.732
827.594	111.756
827.722	112.173
827.850	111.315
827.978	110.567
828.106	111.787
828.235	113.457
828.363	113.213
828.491	113.827
828.619	110.638
828.747	111.283
828.875	112.654
829.003	113.024
829.131	112.331
829.260	112.945
829.388	111.551
829.516	111.764
829.644	112.598
829.772	113.181
829.900	111.126
830.028	111.811
830.156	112.417
830.285	112.260
830.413	112.835
830.541	111.646
830.669	111.362
830.797	111.520
830.925	110.583
831.053	110.929
831.181	111.031
831.310	110.953
831.438	110.858
831.566	111.031
831.694	111.047
831.822	110.331
831.950	110.126
832.078	111.591
832.206	110.953
832.335	110.110
832.463	111.110
832.591	111.197
832.719	110.583
832.847	110.094
832.975	110.669
833.103	110.780
833.231	110.913
833.360	111.362
833.488	110.118
833.616	109.858
833.744	110.079
833.872	111.307
834.000	111.087
834.128	111.102
834.256	111.370
834.385	110.039
834.513	110.598
834.641	110.189
834.769	109.543
834.897	110.575
835.025	109.756
835.153	109.559
835.281	109.819
835.410	110.457
835.538	109.622
835.666	109.630
835.794	109.913
835.922	109.512
836.050	109.583
836.178	109.520
836.306	109.551
836.435	109.819
836.563	109.134
836.691	109.724
836.819	110.205
836.947	109.843
837.075	110.063
837.203	109.126
837.331	109.252
837.460	109.740
837.588	109.339
837.716	109.882
837.844	109.378
837.972	110.024
838.100	109.110
838.228	110.039
838.356	108.969
838.485	108.055
838.613	109.417
838.741	109.409
838.869	108.945
838.997	108.709
839.125	108.441
839.253	108.512
839.381	110.181
839.510	108.709
839.638	108.307
839.766	108.299
839.894	109.008
840.022	109.803
840.150	109.409
840.278	108.283
840.406	108.709
840.535	109.740
840.663	107.701
840.791	108.031
840.919	107.835
841.047	107.748
841.175	108.709
841.303	108.512
841.431	108.701
841.560	107.929
841.688	107.748
841.816	108.087
841.944	108.504
842.072	108.236
842.200	108.126
842.328	108.417
842.456	108.291
842.585	107.969
842.713	108.362
842.841	108.520
842.969	108.780
843.097	108.724
843.225	107.756
843.353	108.921
843.481	107.417
843.610	109.606
843.738	107.811
843.866	107.362
