90-100-unpol_at_679.99nm_cut_at_1250.00Y_01.dat
24.01.2024
13:29:18
cut middle at Y: 1250.00
top cursor: 1310 down cursor: 1190 mean of: 120 lines , 2560 datapoints
wavelength(nm)	intensity[arb. units]
515.994	1212.300
516.122	1153.100
516.250	1128.858
516.378	1118.733
516.506	1116.450
516.635	1128.883
516.763	1135.475
516.891	1142.942
517.019	1132.192
517.147	1136.700
517.275	1137.058
517.403	1136.892
517.531	1133.417
517.660	1139.175
517.788	1135.067
517.916	1144.383
518.044	1137.167
518.172	1138.867
518.300	1152.467
518.428	1142.742
518.556	1145.250
518.685	1140.283
518.813	1146.308
518.941	1154.058
519.069	1157.208
519.197	1154.750
519.325	1163.942
519.453	1154.283
519.581	1169.467
519.710	1157.633
519.838	1167.458
519.966	1162.483
520.094	1167.283
520.222	1168.467
520.350	1184.575
520.478	1183.525
520.606	1186.658
520.735	1179.925
520.863	1185.900
520.991	1191.767
521.119	1195.050
521.247	1192.992
521.375	1207.183
521.503	1212.058
521.631	1218.708
521.760	1212.892
521.888	1210.092
522.016	1216.417
522.144	1219.067
522.272	1227.483
522.400	1227.950
522.528	1234.750
522.656	1234.617
522.785	1248.908
522.913	1241.558
523.041	1242.667
523.169	1235.758
523.297	1243.925
523.425	1249.142
523.553	1251.017
523.681	1250.508
523.810	1257.250
523.938	1266.483
524.066	1260.483
524.194	1261.542
524.322	1252.333
524.450	1255.058
524.578	1256.967
524.706	1263.042
524.835	1258.733
524.963	1260.867
525.091	1254.558
525.219	1267.008
525.347	1254.442
525.475	1266.392
525.603	1263.992
525.731	1266.767
525.860	1271.133
525.988	1267.225
526.116	1259.625
526.244	1274.400
526.372	1265.325
526.500	1264.958
526.628	1280.792
526.756	1268.358
526.885	1263.275
527.013	1259.200
527.141	1271.183
527.269	1271.925
527.397	1271.892
527.525	1276.192
527.653	1262.867
527.781	1267.250
527.910	1276.075
528.038	1279.283
528.166	1283.775
528.294	1276.192
528.422	1274.283
528.550	1289.117
528.678	1292.350
528.806	1290.192
528.935	1305.650
529.063	1286.308
529.191	1296.883
529.319	1302.708
529.447	1305.192
529.575	1308.233
529.703	1297.325
529.831	1311.133
529.960	1303.233
530.088	1309.608
530.216	1315.225
530.344	1318.525
530.472	1318.183
530.600	1319.517
530.728	1323.025
530.856	1325.458
530.985	1319.367
531.113	1323.992
531.241	1325.758
531.369	1337.033
531.497	1326.092
531.625	1323.783
531.753	1331.192
531.881	1335.408
532.010	1325.533
532.138	1317.367
532.266	1321.950
532.394	1326.883
532.522	1312.792
532.650	1327.883
532.778	1337.717
532.906	1316.317
533.035	1323.492
533.163	1319.400
533.291	1322.383
533.419	1310.617
533.547	1322.500
533.675	1329.425
533.803	1314.383
533.931	1318.367
534.060	1319.267
534.188	1317.833
534.316	1318.275
534.444	1317.617
534.572	1319.142
534.700	1317.908
534.828	1316.475
534.956	1326.150
535.085	1321.033
535.213	1318.675
535.341	1333.792
535.469	1337.558
535.597	1336.708
535.725	1344.983
535.853	1341.958
535.981	1342.283
536.110	1345.175
536.238	1349.000
536.366	1354.192
536.494	1347.950
536.622	1358.742
536.750	1363.775
536.878	1365.150
537.006	1378.025
537.135	1366.792
537.263	1385.692
537.391	1395.383
537.519	1379.925
537.647	1392.300
537.775	1385.050
537.903	1390.742
538.031	1391.942
538.160	1396.642
538.288	1398.975
538.416	1408.717
538.544	1395.492
538.672	1413.542
538.800	1417.283
538.928	1419.000
539.056	1412.142
539.185	1421.767
539.313	1419.592
539.441	1417.900
539.569	1423.875
539.697	1420.142
539.825	1434.708
539.953	1419.667
540.081	1415.492
540.210	1430.725
540.338	1429.942
540.466	1421.742
540.594	1431.450
540.722	1420.525
540.850	1438.067
540.978	1434.050
541.106	1428.358
541.235	1430.542
541.363	1415.258
541.491	1429.717
541.619	1422.900
541.747	1424.717
541.875	1428.792
542.003	1427.475
542.131	1434.133
542.260	1438.625
542.388	1430.333
542.516	1431.250
542.644	1446.142
542.772	1436.550
542.900	1438.133
543.028	1439.133
543.156	1445.458
543.285	1434.942
543.413	1438.583
543.541	1451.817
543.669	1453.833
543.797	1447.333
543.925	1437.433
544.053	1453.233
544.181	1450.258
544.310	1447.750
544.438	1449.817
544.566	1465.733
544.694	1461.842
544.822	1452.825
544.950	1457.350
545.078	1445.917
545.206	1458.875
545.335	1464.642
545.463	1460.000
545.591	1443.233
545.719	1459.925
545.847	1468.142
545.975	1460.725
546.103	1456.517
546.231	1467.067
546.360	1457.683
546.488	1458.067
546.616	1462.033
546.744	1469.242
546.872	1468.017
547.000	1473.725
547.128	1470.358
547.256	1471.933
547.385	1461.867
547.513	1465.050
547.641	1470.425
547.769	1478.867
547.897	1473.333
548.025	1469.900
548.153	1470.642
548.281	1471.792
548.410	1465.192
548.538	1469.225
548.666	1472.300
548.794	1462.542
548.922	1479.642
549.050	1479.408
549.178	1488.175
549.306	1480.325
549.435	1481.042
549.563	1472.000
549.691	1473.192
549.819	1487.142
549.947	1484.333
550.075	1482.825
550.203	1479.967
550.331	1486.508
550.460	1476.092
550.588	1480.667
550.716	1492.133
550.844	1486.608
550.972	1483.467
551.100	1483.192
551.228	1483.692
551.356	1478.133
551.485	1478.242
551.613	1469.892
551.741	1464.950
551.869	1470.117
551.997	1471.267
552.125	1467.133
552.253	1468.042
552.381	1462.808
552.510	1460.083
552.638	1440.692
552.766	1459.575
552.894	1449.192
553.022	1438.133
553.150	1452.283
553.278	1449.725
553.406	1446.642
553.535	1434.183
553.663	1438.400
553.791	1447.392
553.919	1440.567
554.047	1434.583
554.175	1429.408
554.303	1437.183
554.431	1422.450
554.560	1424.508
554.688	1444.092
554.816	1423.417
554.944	1437.500
555.072	1432.233
555.200	1438.375
555.328	1429.567
555.456	1441.133
555.585	1437.592
555.713	1431.850
555.841	1438.500
555.969	1438.617
556.097	1442.358
556.225	1442.558
556.353	1449.650
556.481	1440.900
556.610	1441.975
556.738	1457.017
556.866	1446.383
556.994	1442.817
557.122	1435.842
557.250	1451.200
557.378	1453.533
557.506	1454.825
557.635	1459.067
557.763	1447.700
557.891	1469.417
558.019	1462.017
558.147	1459.000
558.275	1463.808
558.403	1474.600
558.531	1465.317
558.660	1472.608
558.788	1471.800
558.916	1471.567
559.044	1470.717
559.172	1462.183
559.300	1467.500
559.428	1476.200
559.556	1468.333
559.685	1476.308
559.813	1469.892
559.941	1473.542
560.069	1475.008
560.197	1474.433
560.325	1477.467
560.453	1469.458
560.581	1484.058
560.710	1475.908
560.838	1478.575
560.966	1476.567
561.094	1481.942
561.222	1471.283
561.350	1478.542
561.478	1468.692
561.606	1474.983
561.735	1467.575
561.863	1468.025
561.991	1470.083
562.119	1460.350
562.247	1468.108
562.375	1468.908
562.503	1467.850
562.631	1452.550
562.760	1460.092
562.888	1463.375
563.016	1466.808
563.144	1462.483
563.272	1448.792
563.400	1446.725
563.528	1444.592
563.656	1462.158
563.785	1456.167
563.913	1457.067
564.041	1448.483
564.169	1455.767
564.297	1450.817
564.425	1451.192
564.553	1475.875
564.681	1445.067
564.810	1457.192
564.938	1443.333
565.066	1439.383
565.194	1461.408
565.322	1454.700
565.450	1450.183
565.578	1464.358
565.706	1448.025
565.835	1470.042
565.963	1455.983
566.091	1451.000
566.219	1468.892
566.347	1460.133
566.475	1461.183
566.603	1463.992
566.731	1458.542
566.860	1466.475
566.988	1466.142
567.116	1483.483
567.244	1472.083
567.372	1491.050
567.500	1481.750
567.628	1468.542
567.756	1472.533
567.885	1486.183
568.013	1499.933
568.141	1494.817
568.269	1486.525
568.397	1487.100
568.525	1475.950
568.653	1500.533
568.781	1496.950
568.910	1509.850
569.038	1495.925
569.166	1502.600
569.294	1495.417
569.422	1515.342
569.550	1499.983
569.678	1501.417
569.806	1512.850
569.935	1517.025
570.063	1530.350
570.191	1524.575
570.319	1519.575
570.447	1514.742
570.575	1518.750
570.703	1522.767
570.831	1535.225
570.960	1537.842
571.088	1529.958
571.216	1530.242
571.344	1533.008
571.472	1530.075
571.600	1543.033
571.728	1543.667
571.856	1537.483
571.985	1535.842
572.113	1557.433
572.241	1552.142
572.369	1565.325
572.497	1547.908
572.625	1556.417
572.753	1545.150
572.881	1549.117
573.010	1554.575
573.138	1568.975
573.266	1563.150
573.394	1570.517
573.522	1554.142
573.650	1570.367
573.778	1570.883
573.906	1560.925
574.035	1566.633
574.163	1570.700
574.291	1578.808
574.419	1571.567
574.547	1576.508
574.675	1575.325
574.803	1574.975
574.931	1557.533
575.060	1579.442
575.188	1571.350
575.316	1568.775
575.444	1569.050
575.572	1570.525
575.700	1574.117
575.828	1583.550
575.956	1581.658
576.085	1570.983
576.213	1569.708
576.341	1566.583
576.469	1576.825
576.597	1560.317
576.725	1566.833
576.853	1558.267
576.981	1561.025
577.110	1566.725
577.238	1582.658
577.366	1568.042
577.494	1566.308
577.622	1568.458
577.750	1557.583
577.878	1557.958
578.006	1572.200
578.135	1564.458
578.263	1566.067
578.391	1582.275
578.519	1565.767
578.647	1569.450
578.775	1561.500
578.903	1553.525
579.031	1566.008
579.160	1560.550
579.288	1558.417
579.416	1554.692
579.544	1560.175
579.672	1567.933
579.800	1570.392
579.928	1551.058
580.056	1554.758
580.185	1549.575
580.313	1565.108
580.441	1571.958
580.569	1556.517
580.697	1561.458
580.825	1561.750
580.953	1576.400
581.081	1568.817
581.210	1577.317
581.338	1576.892
581.466	1578.642
581.594	1578.742
581.722	1579.058
581.850	1569.492
581.978	1576.058
582.106	1577.900
582.235	1579.483
582.363	1584.008
582.491	1584.100
582.619	1584.617
582.747	1599.358
582.875	1597.625
583.003	1593.850
583.131	1606.125
583.260	1611.908
583.388	1607.817
583.516	1613.233
583.644	1624.625
583.772	1623.117
583.900	1626.417
584.028	1640.933
584.156	1637.058
584.285	1639.883
584.413	1649.008
584.541	1649.725
584.669	1653.583
584.797	1652.075
584.925	1647.783
585.053	1660.025
585.181	1666.008
585.310	1666.508
585.438	1661.258
585.566	1670.942
585.694	1674.292
585.822	1686.725
585.950	1673.992
586.078	1691.867
586.206	1687.583
586.335	1690.783
586.463	1707.342
586.591	1708.708
586.719	1700.100
586.847	1715.325
586.975	1707.358
587.103	1715.033
587.231	1703.942
587.360	1710.142
587.488	1730.208
587.616	1715.675
587.744	1730.308
587.872	1722.633
588.000	1720.875
588.128	1735.942
588.256	1732.317
588.385	1723.075
588.513	1726.142
588.641	1718.250
588.769	1734.925
588.897	1724.425
589.025	1727.358
589.153	1728.833
589.281	1729.650
589.410	1735.117
589.538	1741.575
589.666	1737.642
589.794	1722.433
589.922	1748.742
590.050	1752.750
590.178	1737.508
590.306	1742.242
590.435	1746.325
590.563	1728.092
590.691	1727.567
590.819	1737.408
590.947	1759.217
591.075	1741.408
591.203	1734.800
591.331	1751.450
591.460	1745.967
591.588	1739.600
591.716	1753.583
591.844	1753.433
591.972	1751.367
592.100	1737.875
592.228	1752.342
592.356	1752.183
592.485	1758.200
592.613	1748.925
592.741	1763.933
592.869	1746.425
592.997	1773.992
593.125	1760.867
593.253	1776.133
593.381	1773.267
593.510	1783.358
593.638	1766.025
593.766	1768.975
593.894	1775.158
594.022	1777.608
594.150	1776.933
594.278	1791.792
594.406	1786.808
594.535	1777.358
594.663	1785.075
594.791	1798.683
594.919	1795.458
595.047	1800.492
595.175	1807.250
595.303	1800.858
595.431	1802.983
595.560	1809.642
595.688	1815.967
595.816	1814.592
595.944	1816.758
596.072	1831.850
596.200	1826.867
596.328	1826.183
596.456	1824.008
596.585	1825.808
596.713	1847.758
596.841	1835.658
596.969	1839.892
597.097	1848.092
597.225	1856.858
597.353	1859.267
597.481	1856.067
597.610	1855.550
597.738	1859.392
597.866	1852.192
597.994	1876.275
598.122	1877.750
598.250	1870.642
598.378	1868.900
598.506	1877.900
598.635	1875.242
598.763	1876.850
598.891	1884.950
599.019	1885.042
599.147	1881.033
599.275	1887.025
599.403	1882.567
599.531	1890.183
599.660	1895.867
599.788	1903.092
599.916	1889.575
600.044	1913.592
600.172	1910.117
600.300	1911.383
600.428	1908.567
600.556	1914.700
600.685	1928.492
600.813	1919.975
600.941	1949.367
601.069	1928.758
601.197	1938.408
601.325	1922.908
601.453	1928.133
601.581	1931.933
601.710	1954.358
601.838	1962.175
601.966	1957.200
602.094	1961.117
602.222	1970.850
602.350	1953.492
602.478	1966.092
602.606	1983.150
602.735	1965.858
602.863	1986.942
602.991	2003.425
603.119	1985.617
603.247	1991.950
603.375	1986.800
603.503	1988.533
603.631	2008.433
603.760	2020.775
603.888	2023.975
604.016	2027.400
604.144	2023.483
604.272	2027.925
604.400	2039.017
604.528	2031.492
604.656	2049.658
604.785	2052.842
604.913	2042.000
605.041	2057.983
605.169	2069.417
605.297	2063.658
605.425	2074.375
605.553	2083.533
605.681	2055.058
605.810	2096.267
605.938	2085.992
606.066	2078.575
606.194	2094.750
606.322	2086.983
606.450	2094.567
606.578	2091.367
606.706	2098.267
606.835	2108.358
606.963	2119.325
607.091	2114.508
607.219	2115.258
607.347	2109.125
607.475	2126.942
607.603	2125.283
607.731	2115.575
607.860	2120.167
607.988	2122.567
608.116	2119.333
608.244	2125.450
608.372	2128.792
608.500	2129.533
608.628	2122.700
608.756	2130.350
608.885	2136.500
609.013	2141.108
609.141	2124.142
609.269	2128.700
609.397	2121.300
609.525	2144.325
609.653	2143.275
609.781	2129.925
609.910	2138.383
610.038	2139.725
610.166	2140.633
610.294	2130.500
610.422	2148.042
610.550	2139.567
610.678	2151.708
610.806	2139.158
610.935	2155.108
611.063	2147.267
611.191	2146.108
611.319	2140.292
611.447	2139.217
611.575	2150.433
611.703	2137.250
611.831	2162.133
611.960	2131.875
612.088	2149.117
612.216	2149.450
612.344	2155.617
612.472	2142.583
612.600	2148.733
612.728	2141.358
612.856	2158.083
612.985	2146.925
613.113	2161.775
613.241	2172.908
613.369	2151.908
613.497	2158.025
613.625	2175.175
613.753	2163.617
613.881	2167.525
614.010	2173.475
614.138	2180.933
614.266	2164.333
614.394	2163.292
614.522	2170.058
614.650	2182.333
614.778	2176.133
614.906	2192.817
615.035	2185.500
615.163	2171.792
615.291	2195.633
615.419	2176.833
615.547	2182.925
615.675	2198.892
615.803	2205.575
615.931	2211.917
616.060	2197.350
616.188	2230.300
616.316	2201.550
616.444	2206.558
616.572	2208.433
616.700	2214.792
616.828	2239.683
616.956	2239.467
617.085	2249.167
617.213	2236.350
617.341	2238.792
617.469	2252.975
617.597	2258.775
617.725	2258.233
617.853	2253.225
617.981	2258.175
618.110	2279.300
618.238	2277.942
618.366	2278.808
618.494	2289.292
618.622	2286.483
618.750	2289.100
618.878	2300.808
619.006	2301.733
619.135	2321.033
619.263	2313.100
619.391	2314.550
619.519	2311.550
619.647	2333.458
619.775	2334.775
619.903	2335.475
620.031	2342.167
620.160	2345.133
620.288	2353.383
620.416	2372.892
620.544	2356.425
620.672	2390.233
620.800	2377.575
620.928	2391.108
621.056	2402.117
621.185	2387.992
621.313	2388.025
621.441	2408.975
621.569	2414.050
621.697	2406.133
621.825	2429.917
621.953	2413.092
622.081	2441.767
622.210	2443.500
622.338	2437.675
622.466	2446.983
622.594	2459.325
622.722	2452.875
622.850	2469.100
622.978	2502.808
623.106	2481.458
623.235	2484.000
623.363	2497.508
623.491	2478.867
623.619	2485.000
623.747	2490.083
623.875	2509.792
624.003	2487.633
624.131	2510.375
624.260	2494.000
624.388	2521.667
624.516	2541.492
624.644	2513.892
624.772	2533.683
624.900	2524.325
625.028	2526.575
625.156	2554.475
625.285	2525.675
625.413	2555.933
625.541	2540.817
625.669	2542.500
625.797	2550.175
625.925	2553.800
626.053	2555.758
626.181	2565.358
626.310	2573.458
626.438	2553.542
626.566	2561.042
626.694	2570.167
626.822	2577.050
626.950	2588.042
627.078	2581.650
627.206	2568.933
627.335	2584.458
627.463	2583.775
627.591	2606.742
627.719	2591.225
627.847	2594.042
627.975	2606.792
628.103	2597.983
628.231	2607.983
628.360	2599.700
628.488	2603.642
628.616	2597.625
628.744	2605.892
628.872	2607.700
629.000	2613.875
629.128	2603.725
629.256	2621.450
629.385	2638.842
629.513	2625.233
629.641	2642.117
629.769	2634.942
629.897	2645.442
630.025	2635.158
630.153	2668.792
630.281	2654.317
630.410	2643.367
630.538	2665.133
630.666	2654.008
630.794	2669.183
630.922	2680.292
631.050	2650.642
631.178	2669.867
631.306	2673.567
631.435	2677.592
631.563	2693.900
631.691	2688.492
631.819	2710.783
631.947	2690.800
632.075	2682.667
632.203	2714.317
632.331	2697.192
632.460	2696.258
632.588	2700.758
632.716	2715.842
632.844	2740.533
632.972	2707.308
633.100	2708.767
633.228	2731.425
633.356	2707.633
633.485	2719.492
633.613	2721.500
633.741	2725.317
633.869	2729.900
633.997	2740.025
634.125	2763.950
634.253	2727.342
634.381	2743.792
634.510	2740.742
634.638	2736.733
634.766	2762.550
634.894	2742.033
635.022	2737.867
635.150	2761.217
635.278	2768.717
635.406	2757.975
635.535	2755.658
635.663	2789.267
635.791	2737.100
635.919	2766.525
636.047	2761.650
636.175	2766.083
636.303	2773.608
636.431	2788.142
636.560	2790.900
636.688	2765.033
636.816	2780.658
636.944	2780.017
637.072	2796.408
637.200	2795.942
637.328	2802.017
637.456	2799.342
637.585	2803.817
637.713	2823.292
637.841	2784.275
637.969	2815.533
638.097	2795.433
638.225	2831.550
638.353	2839.108
638.481	2829.842
638.610	2835.558
638.738	2830.958
638.866	2824.683
638.994	2846.833
639.122	2842.817
639.250	2831.842
639.378	2866.708
639.506	2845.508
639.635	2878.217
639.763	2843.400
639.891	2900.200
640.019	2882.408
640.147	2906.175
640.275	2868.683
640.403	2855.275
640.531	2912.458
640.660	2898.033
640.788	2939.600
640.916	2909.583
641.044	2907.650
641.172	2897.217
641.300	2909.758
641.428	2921.117
641.556	2940.042
641.685	2944.783
641.813	2934.825
641.941	2939.258
642.069	2952.375
642.197	2983.892
642.325	2971.592
642.453	2956.408
642.581	3052.342
642.710	2951.217
642.838	3008.525
642.966	2980.850
643.094	2991.425
643.222	2997.158
643.350	3022.408
643.478	3045.417
643.606	3021.317
643.735	2969.700
643.863	3022.417
643.991	3038.775
644.119	3029.817
644.247	3038.475
644.375	3034.308
644.503	3048.967
644.631	3079.500
644.760	3076.142
644.888	3071.842
645.016	3088.033
645.144	3092.625
645.272	3064.508
645.400	3110.842
645.528	3098.158
645.656	3092.825
645.785	3104.275
645.913	3142.717
646.041	3116.508
646.169	3157.608
646.297	3096.783
646.425	3152.850
646.553	3123.950
646.681	3093.800
646.810	3130.325
646.938	3116.917
647.066	3085.883
647.194	3178.483
647.322	3123.400
647.450	3129.967
647.578	3155.142
647.706	3130.358
647.835	3143.783
647.963	3193.900
648.091	3126.750
648.219	3180.258
648.347	3171.892
648.475	3160.092
648.603	3161.567
648.731	3148.017
648.860	3160.367
648.988	3141.392
649.116	3151.000
649.244	3131.758
649.372	3158.142
649.500	3167.792
649.628	3200.458
649.756	3155.767
649.885	3143.917
650.013	3136.033
650.141	3149.400
650.269	3122.808
650.397	3118.242
650.525	3122.642
650.653	3180.000
650.781	3165.542
650.910	3144.067
651.038	3114.717
651.166	3108.258
651.294	3103.400
651.422	3116.775
651.550	3076.825
651.678	3121.992
651.806	3096.425
651.935	3115.142
652.063	3111.475
652.191	3108.642
652.319	3098.067
652.447	3090.575
652.575	3092.375
652.703	3114.575
652.831	3111.750
652.960	3092.750
653.088	3111.567
653.216	3084.658
653.344	3114.217
653.472	3091.433
653.600	3089.208
653.728	3078.133
653.856	3095.317
653.985	3081.167
654.113	3077.908
654.241	3082.000
654.369	3086.525
654.497	3116.342
654.625	3090.075
654.753	3070.817
654.881	3108.233
655.010	3130.008
655.138	3080.758
655.266	3087.300
655.394	3074.325
655.522	3117.417
655.650	3053.083
655.778	3147.942
655.906	3100.917
656.035	3067.392
656.163	3072.842
656.291	3083.925
656.419	3097.058
656.547	3096.700
656.675	3086.375
656.803	3114.033
656.931	3091.925
657.060	3113.117
657.188	3103.442
657.316	3103.850
657.444	3092.342
657.572	3110.642
657.700	3091.042
657.828	3098.908
657.956	3148.033
658.085	3179.425
658.213	3158.433
658.341	3160.367
658.469	3160.075
658.597	3195.425
658.725	3162.542
658.853	3136.442
658.981	3136.208
659.110	3160.983
659.238	3173.875
659.366	3135.083
659.494	3132.967
659.622	3137.817
659.750	3124.000
659.878	3132.358
660.006	3139.608
660.135	3130.358
660.263	3137.383
660.391	3224.933
660.519	3197.075
660.647	3134.067
660.775	3136.175
660.903	3094.675
661.031	3122.225
661.160	3179.192
661.288	3175.225
661.416	3163.983
661.544	3136.458
661.672	3141.792
661.800	3149.058
661.928	3139.900
662.056	3215.175
662.185	3134.458
662.313	3158.608
662.441	3228.283
662.569	3166.383
662.697	3139.817
662.825	3149.608
662.953	3130.558
663.081	3146.042
663.210	3135.967
663.338	3130.392
663.466	3148.825
663.594	3152.650
663.722	3128.917
663.850	3165.567
663.978	3153.692
664.106	3224.475
664.235	3142.117
664.363	3199.000
664.491	3157.575
664.619	3158.367
664.747	3137.667
664.875	3154.625
665.003	3173.825
665.131	3136.625
665.260	3196.492
665.388	3151.175
665.516	3125.542
665.644	3171.750
665.772	3162.425
665.900	3179.950
666.028	3147.500
666.156	3165.917
666.285	3169.300
666.413	3170.058
666.541	3178.342
666.669	3148.092
666.797	3122.733
666.925	3135.550
667.053	3203.258
667.181	3123.125
667.310	3159.233
667.438	3163.633
667.566	3170.700
667.694	3175.108
667.822	3168.200
667.950	3146.542
668.078	3136.783
668.206	3157.975
668.335	3125.558
668.463	3159.300
668.591	3149.708
668.719	3186.375
668.847	3188.225
668.975	3145.967
669.103	3152.883
669.231	3167.800
669.360	3115.675
669.488	3140.492
669.616	3134.367
669.744	3170.683
669.872	3130.458
670.000	3144.667
670.128	3132.283
670.256	3107.517
670.385	3141.375
670.513	3129.200
670.641	3152.825
670.769	3166.742
670.897	3110.900
671.025	3141.650
671.153	3140.050
671.281	3139.317
671.410	3192.658
671.538	3147.608
671.666	3166.367
671.794	3170.575
671.922	3133.808
672.050	3189.433
672.178	3113.600
672.306	3134.883
672.435	3137.600
672.563	3138.692
672.691	3161.317
672.819	3132.708
672.947	3098.383
673.075	3095.683
673.203	3133.625
673.331	3094.558
673.460	3112.408
673.588	3108.783
673.716	3127.942
673.844	3121.592
673.972	3088.400
674.100	3080.083
674.228	3078.967
674.356	3081.842
674.485	3085.283
674.613	3084.233
674.741	3095.858
674.869	3042.933
674.997	3113.217
675.125	3084.675
675.253	3036.333
675.381	3093.133
675.510	3045.800
675.638	3054.383
675.766	3045.133
675.894	3088.358
676.022	3029.958
676.150	3033.458
676.278	3050.192
676.406	3047.108
676.535	3061.367
676.663	3047.208
676.791	3015.492
676.919	3015.125
677.047	2974.925
677.175	3013.633
677.303	3082.367
677.431	2988.450
677.560	2971.775
677.688	2952.158
677.816	3030.217
677.944	2978.717
678.072	2937.967
678.200	2936.683
678.328	2974.842
678.456	2962.417
678.585	2910.292
678.713	2934.133
678.841	2926.242
678.969	2949.317
679.097	2930.117
679.225	2928.317
679.353	2919.117
679.481	2894.592
679.610	2891.967
679.738	2856.083
679.866	2910.642
679.994	2896.050
680.122	2911.075
680.250	2859.067
680.378	2897.417
680.506	2841.350
680.635	2851.175
680.763	2892.633
680.891	2873.567
681.019	2824.583
681.147	2879.475
681.275	2859.808
681.403	2805.467
681.531	2821.867
681.660	2826.908
681.788	2905.583
681.916	2806.258
682.044	2810.533
682.172	2815.217
682.300	2790.625
682.428	2794.683
682.556	2826.500
682.685	2814.183
682.813	2827.100
682.941	2778.267
683.069	2760.475
683.197	2810.242
683.325	2794.983
683.453	2763.567
683.581	2808.158
683.710	2766.833
683.838	2750.008
683.966	2760.392
684.094	2793.900
684.222	2760.158
684.350	2754.675
684.478	2741.000
684.606	2771.175
684.735	2751.033
684.863	2728.567
684.991	2789.267
685.119	2794.625
685.247	2816.875
685.375	2730.600
685.503	2754.758
685.631	2803.417
685.760	2738.292
685.888	2701.267
686.016	2739.208
686.144	2767.400
686.272	2731.800
686.400	2710.575
686.528	2712.967
686.656	2681.700
686.785	2711.125
686.913	2694.892
687.041	2690.533
687.169	2700.625
687.297	2714.175
687.425	2717.558
687.553	2689.508
687.681	2661.717
687.810	2704.817
687.938	2682.850
688.066	2674.967
688.194	2699.575
688.322	2696.950
688.450	2678.500
688.578	2679.817
688.706	2670.692
688.835	2702.308
688.963	2683.875
689.091	2668.183
689.219	2659.508
689.347	2655.800
689.475	2709.867
689.603	2653.133
689.731	2677.633
689.860	2654.208
689.988	2628.100
690.116	2648.867
690.244	2677.367
690.372	2634.167
690.500	2621.583
690.628	2649.058
690.756	2624.225
690.885	2601.617
691.013	2630.658
691.141	2605.350
691.269	2647.967
691.397	2601.275
691.525	2604.767
691.653	2599.683
691.781	2580.208
691.910	2609.483
692.038	2634.858
692.166	2574.975
692.294	2640.275
692.422	2584.400
692.550	2645.117
692.678	2579.783
692.806	2579.808
692.935	2562.658
693.063	2558.192
693.191	2576.742
693.319	2564.450
693.447	2542.883
693.575	2539.800
693.703	2591.342
693.831	2535.983
693.960	2532.808
694.088	2529.875
694.216	2526.292
694.344	2541.900
694.472	2514.417
694.600	2500.708
694.728	2511.567
694.856	2495.467
694.985	2484.833
695.113	2479.217
695.241	2474.308
695.369	2488.908
695.497	2484.492
695.625	2464.150
695.753	2457.125
695.881	2457.625
696.010	2446.667
696.138	2435.833
696.266	2426.333
696.394	2419.592
696.522	2411.175
696.650	2408.183
696.778	2402.850
696.906	2403.867
697.035	2372.733
697.163	2395.808
697.291	2370.467
697.419	2366.800
697.547	2354.600
697.675	2363.908
697.803	2355.933
697.931	2338.300
698.060	2324.100
698.188	2328.208
698.316	2334.200
698.444	2308.442
698.572	2312.367
698.700	2315.367
698.828	2291.083
698.956	2286.458
699.085	2282.308
699.213	2287.292
699.341	2258.375
699.469	2256.700
699.597	2261.733
699.725	2254.817
699.853	2231.125
699.981	2242.517
700.110	2226.317
700.238	2224.158
700.366	2226.592
700.494	2198.500
700.622	2205.583
700.750	2195.542
700.878	2208.958
701.006	2177.575
701.135	2173.208
701.263	2173.608
701.391	2161.925
701.519	2175.958
701.647	2159.992
701.775	2151.492
701.903	2146.667
702.031	2146.675
702.160	2142.392
702.288	2126.217
702.416	2129.967
702.544	2115.467
702.672	2116.508
702.800	2109.242
702.928	2111.725
703.056	2102.625
703.185	2082.633
703.313	2099.750
703.441	2076.367
703.569	2085.275
703.697	2085.667
703.825	2068.000
703.953	2067.817
704.081	2058.733
704.210	2055.742
704.338	2045.425
704.466	2030.483
704.594	2023.342
704.722	2029.283
704.850	2035.392
704.978	2012.017
705.106	2005.233
705.235	1990.192
705.363	1999.675
705.491	1998.958
705.619	1987.650
705.747	1969.475
705.875	1983.842
706.003	1958.883
706.131	1971.183
706.260	1946.042
706.388	1930.767
706.516	1934.992
706.644	1928.850
706.772	1934.675
706.900	1908.550
707.028	1911.908
707.156	1902.042
707.285	1910.542
707.413	1891.775
707.541	1881.617
707.669	1881.208
707.797	1874.475
707.925	1863.850
708.053	1861.808
708.181	1839.350
708.310	1826.667
708.438	1835.550
708.566	1831.208
708.694	1818.617
708.822	1821.250
708.950	1816.033
709.078	1785.733
709.206	1794.275
709.335	1783.742
709.463	1775.192
709.591	1777.758
709.719	1764.600
709.847	1752.417
709.975	1756.783
710.103	1744.308
710.231	1733.175
710.360	1721.667
710.488	1711.783
710.616	1709.658
710.744	1702.625
710.872	1715.375
711.000	1692.933
711.128	1666.650
711.256	1681.325
711.385	1685.192
711.513	1667.508
711.641	1659.358
711.769	1665.175
711.897	1647.583
712.025	1639.058
712.153	1632.617
712.281	1630.108
712.410	1626.058
712.538	1631.308
712.666	1602.425
712.794	1603.942
712.922	1599.067
713.050	1602.708
713.178	1597.042
713.306	1598.550
713.435	1578.117
713.563	1571.442
713.691	1573.917
713.819	1564.892
713.947	1554.867
714.075	1551.883
714.203	1552.867
714.331	1539.417
714.460	1519.375
714.588	1524.692
714.716	1511.258
714.844	1518.650
714.972	1507.692
715.100	1508.225
715.228	1504.508
715.356	1498.000
715.485	1502.208
715.613	1477.892
715.741	1485.667
715.869	1475.733
715.997	1451.867
716.125	1451.292
716.253	1461.475
716.381	1468.642
716.510	1463.917
716.638	1435.050
716.766	1438.625
716.894	1432.733
717.022	1432.550
717.150	1416.225
717.278	1415.617
717.406	1415.242
717.535	1415.708
717.663	1405.042
717.791	1408.667
717.919	1394.050
718.047	1391.475
718.175	1386.575
718.303	1389.608
718.431	1376.383
718.560	1371.175
718.688	1360.775
718.816	1360.717
718.944	1360.508
719.072	1365.675
719.200	1340.267
719.328	1338.867
719.456	1340.608
719.585	1343.358
719.713	1333.700
719.841	1331.492
719.969	1314.667
720.097	1310.133
720.225	1307.767
720.353	1309.150
720.481	1301.442
720.610	1289.333
720.738	1288.308
720.866	1295.033
720.994	1282.408
721.122	1285.450
721.250	1277.317
721.378	1257.683
721.506	1256.250
721.635	1255.133
721.763	1251.100
721.891	1254.633
722.019	1237.142
722.147	1233.575
722.275	1243.467
722.403	1220.867
722.531	1212.508
722.660	1219.875
722.788	1209.125
722.916	1205.708
723.044	1199.033
723.172	1197.567
723.300	1191.150
723.428	1189.442
723.556	1184.783
723.685	1184.142
723.813	1175.875
723.941	1164.842
724.069	1163.750
724.197	1161.467
724.325	1149.783
724.453	1143.683
724.581	1138.833
724.710	1130.467
724.838	1129.108
724.966	1111.625
725.094	1118.067
725.222	1105.433
725.350	1107.183
725.478	1105.917
725.606	1090.950
725.735	1082.883
725.863	1086.975
725.991	1081.850
726.119	1074.525
726.247	1074.408
726.375	1064.008
726.503	1066.675
726.631	1054.567
726.760	1049.058
726.888	1045.408
727.016	1043.833
727.144	1038.992
727.272	1028.467
727.400	1027.492
727.528	1017.308
727.656	1016.125
727.785	1007.083
727.913	1007.617
728.041	995.033
728.169	1007.817
728.297	986.792
728.425	984.825
728.553	984.533
728.681	971.067
728.810	964.483
728.938	958.292
729.066	964.617
729.194	962.017
729.322	947.892
729.450	939.392
729.578	946.925
729.706	932.025
729.835	932.775
729.963	930.700
730.091	921.850
730.219	919.775
730.347	918.550
730.475	908.450
730.603	905.283
730.731	907.600
730.860	895.167
730.988	890.067
731.116	889.058
731.244	887.958
731.372	882.833
731.500	884.675
731.628	873.067
731.756	869.858
731.885	862.142
732.013	874.183
732.141	865.758
732.269	852.125
732.397	849.492
732.525	839.633
732.653	844.617
732.781	838.200
732.910	836.408
733.038	836.142
733.166	823.892
733.294	821.008
733.422	827.433
733.550	816.142
733.678	810.083
733.806	816.075
733.935	809.475
734.063	803.542
734.191	806.042
734.319	791.050
734.447	801.167
734.575	787.592
734.703	789.750
734.831	787.258
734.960	782.692
735.088	784.933
735.216	771.333
735.344	774.367
735.472	754.883
735.600	766.000
735.728	756.583
735.856	755.142
735.985	758.625
736.113	748.683
736.241	749.908
736.369	743.742
736.497	740.000
736.625	738.642
736.753	732.642
736.881	731.783
737.010	722.983
737.138	723.000
737.266	721.583
737.394	723.083
737.522	722.325
737.650	712.208
737.778	714.608
737.906	705.008
738.035	699.333
738.163	697.500
738.291	690.600
738.419	691.692
738.547	688.217
738.675	686.892
738.803	683.783
738.931	678.850
739.060	678.858
739.188	674.825
739.316	676.100
739.444	671.542
739.572	665.733
739.700	663.267
739.828	659.200
739.956	661.042
740.085	662.425
740.213	654.508
740.341	648.425
740.469	648.642
740.597	651.967
740.725	643.675
740.853	645.400
740.981	642.450
741.110	633.542
741.238	637.208
741.366	638.367
741.494	635.433
741.622	628.125
741.750	626.367
741.878	624.242
742.006	619.858
742.135	620.825
742.263	617.183
742.391	614.875
742.519	613.900
742.647	599.217
742.775	607.683
742.903	605.342
743.031	598.250
743.160	594.875
743.288	592.950
743.416	593.792
743.544	585.325
743.672	588.742
743.800	587.983
743.928	581.900
744.056	582.767
744.185	587.350
744.313	576.750
744.441	575.342
744.569	576.650
744.697	567.308
744.825	571.692
744.953	565.875
745.081	561.075
745.210	566.600
745.338	560.608
745.466	559.025
745.594	556.633
745.722	556.800
745.850	544.033
745.978	543.625
746.106	551.967
746.235	543.075
746.363	538.650
746.491	541.308
746.619	537.167
746.747	529.858
746.875	532.200
747.003	532.925
747.131	529.392
747.260	523.717
747.388	525.267
747.516	526.042
747.644	517.733
747.772	518.058
747.900	507.850
748.028	518.233
748.156	509.450
748.285	505.058
748.413	507.525
748.541	505.325
748.669	498.917
748.797	500.000
748.925	494.858
749.053	500.200
749.181	490.708
749.310	492.258
749.438	490.033
749.566	489.875
749.694	484.400
749.822	483.850
749.950	484.850
750.078	484.058
750.206	475.033
750.335	472.042
750.463	469.892
750.591	467.825
750.719	467.808
750.847	462.158
750.975	460.367
751.103	456.033
751.231	461.067
751.360	458.517
751.488	460.100
751.616	454.550
751.744	447.983
751.872	445.425
752.000	450.158
752.128	440.475
752.256	437.908
752.385	437.717
752.513	439.133
752.641	432.492
752.769	435.125
752.897	431.050
753.025	423.767
753.153	423.358
753.281	426.692
753.410	428.192
753.538	425.875
753.666	419.025
753.794	416.692
753.922	413.883
754.050	414.675
754.178	414.275
754.306	406.100
754.435	407.550
754.563	409.917
754.691	404.733
754.819	405.758
754.947	398.450
755.075	403.717
755.203	398.892
755.331	404.250
755.460	393.892
755.588	397.600
755.716	393.617
755.844	388.558
755.972	393.558
756.100	394.117
756.228	386.175
756.356	384.975
756.485	389.733
756.613	385.242
756.741	380.967
756.869	382.100
756.997	375.592
757.125	376.925
757.253	375.233
757.381	370.233
757.510	374.750
757.638	369.525
757.766	371.258
757.894	365.675
758.022	364.642
758.150	363.508
758.278	366.300
758.406	360.417
758.535	363.975
758.663	359.575
758.791	360.325
758.919	356.583
759.047	360.850
759.175	356.183
759.303	356.658
759.431	350.842
759.560	353.208
759.688	349.008
759.816	353.792
759.944	351.517
760.072	344.925
760.200	343.475
760.328	346.442
760.456	343.417
760.585	341.033
760.713	338.367
760.841	338.517
760.969	337.008
761.097	340.933
761.225	333.142
761.353	334.375
761.481	331.792
761.610	331.142
761.738	330.150
761.866	327.542
761.994	324.825
762.122	324.075
762.250	321.433
762.378	323.158
762.506	324.433
762.635	323.492
762.763	319.883
762.891	320.450
763.019	316.675
763.147	318.275
763.275	317.958
763.403	314.683
763.531	311.858
763.660	311.133
763.788	310.225
763.916	309.775
764.044	308.608
764.172	306.817
764.300	305.350
764.428	301.950
764.556	304.442
764.685	304.542
764.813	302.125
764.941	301.108
765.069	298.775
765.197	299.200
765.325	293.683
765.453	295.525
765.581	299.225
765.710	293.092
765.838	292.458
765.966	293.592
766.094	291.975
766.222	290.550
766.350	287.967
766.478	287.367
766.606	283.533
766.735	288.150
766.863	284.842
766.991	287.483
767.119	286.792
767.247	281.175
767.375	281.250
767.503	281.175
767.631	281.158
767.760	281.400
767.888	280.792
768.016	278.542
768.144	273.317
768.272	274.983
768.400	282.075
768.528	274.383
768.656	269.383
768.785	271.342
768.913	270.375
769.041	273.358
769.169	269.317
769.297	270.383
769.425	267.517
769.553	265.658
769.681	267.267
769.810	266.417
769.938	263.600
770.066	267.775
770.194	266.742
770.322	260.483
770.450	261.992
770.578	261.575
770.706	258.592
770.835	258.417
770.963	260.742
771.091	255.467
771.219	257.283
771.347	256.283
771.475	256.050
771.603	251.183
771.731	254.917
771.860	253.092
771.988	251.175
772.116	250.525
772.244	250.108
772.372	250.667
772.500	249.217
772.628	250.692
772.756	246.450
772.885	251.333
773.013	247.842
773.141	242.158
773.269	242.558
773.397	241.633
773.525	243.742
773.653	243.358
773.781	237.558
773.910	238.950
774.038	240.875
774.166	242.175
774.294	239.308
774.422	238.608
774.550	237.125
774.678	234.567
774.806	238.508
774.935	236.983
775.063	233.267
775.191	233.042
775.319	232.800
775.447	231.425
775.575	232.717
775.703	231.892
775.831	232.875
775.960	228.517
776.088	231.267
776.216	228.525
776.344	227.475
776.472	228.008
776.600	227.942
776.728	224.492
776.856	225.525
776.985	225.092
777.113	225.033
777.241	223.575
777.369	222.200
777.497	219.825
777.625	223.117
777.753	219.417
777.881	217.517
778.010	219.417
778.138	217.300
778.266	217.425
778.394	219.383
778.522	216.800
778.650	215.075
778.778	214.217
778.906	214.642
779.035	216.633
779.163	212.933
779.291	213.867
779.419	212.267
779.547	213.100
779.675	215.283
779.803	211.558
779.931	208.517
780.060	211.100
780.188	206.492
780.316	206.275
780.444	212.517
780.572	205.792
780.700	207.175
780.828	206.350
780.956	203.575
781.085	206.042
781.213	202.792
781.341	203.317
781.469	204.258
781.597	202.608
781.725	202.650
781.853	199.892
781.981	199.308
782.110	199.392
782.238	199.317
782.366	200.433
782.494	197.042
782.622	196.950
782.750	198.325
782.878	197.942
783.006	196.667
783.135	195.167
783.263	194.225
783.391	195.283
783.519	193.358
783.647	190.942
783.775	193.025
783.903	193.175
784.031	190.633
784.160	192.317
784.288	190.458
784.416	191.175
784.544	186.375
784.672	188.717
784.800	188.808
784.928	188.575
785.056	182.983
785.185	184.350
785.313	184.267
785.441	185.617
785.569	185.308
785.697	185.792
785.825	185.242
785.953	182.600
786.081	183.800
786.210	180.408
786.338	182.992
786.466	182.375
786.594	180.175
786.722	179.150
786.850	178.583
786.978	176.700
787.106	178.608
787.235	175.192
787.363	178.492
787.491	177.233
787.619	176.958
787.747	176.358
787.875	175.492
788.003	176.800
788.131	172.167
788.260	175.475
788.388	174.617
788.516	171.100
788.644	173.917
788.772	172.750
788.900	171.167
789.028	170.117
789.156	173.158
789.285	169.975
789.413	170.833
789.541	170.917
789.669	169.308
789.797	166.983
789.925	169.292
790.053	170.167
790.181	167.617
790.310	164.333
790.438	166.583
790.566	166.767
790.694	165.008
790.822	167.608
790.950	167.817
791.078	164.508
791.206	164.525
791.335	163.433
791.463	164.908
791.591	162.975
791.719	163.150
791.847	161.342
791.975	161.725
792.103	161.617
792.231	161.942
792.360	159.775
792.488	160.417
792.616	160.775
792.744	160.900
792.872	159.567
793.000	158.825
793.128	158.775
793.256	158.592
793.385	158.092
793.513	159.008
793.641	160.067
793.769	156.808
793.897	156.108
794.025	156.167
794.153	156.750
794.281	157.158
794.410	153.742
794.538	154.692
794.666	155.633
794.794	155.967
794.922	153.775
795.050	153.008
795.178	155.792
795.306	149.950
795.435	150.425
795.563	151.275
795.691	152.050
795.819	149.658
795.947	152.358
796.075	154.583
796.203	151.925
796.331	150.242
796.460	150.158
796.588	151.700
796.716	149.925
796.844	150.308
796.972	149.933
797.100	148.342
797.228	148.683
797.356	147.692
797.485	149.767
797.613	149.067
797.741	147.900
797.869	149.183
797.997	145.492
798.125	148.125
798.253	146.858
798.381	145.875
798.510	146.608
798.638	145.333
798.766	146.217
798.894	144.283
799.022	144.917
799.150	144.925
799.278	144.000
799.406	144.367
799.535	144.925
799.663	144.408
799.791	142.950
799.919	143.467
800.047	143.708
800.175	142.725
800.303	143.350
800.431	142.383
800.560	141.567
800.688	142.033
800.816	140.000
800.944	140.467
801.072	142.508
801.200	142.392
801.328	141.625
801.456	141.808
801.585	142.542
801.713	141.083
801.841	140.475
801.969	140.258
802.097	139.933
802.225	140.633
802.353	139.492
802.481	140.183
802.610	138.708
802.738	139.775
802.866	137.983
802.994	138.192
803.122	137.525
803.250	139.567
803.378	137.625
803.506	136.342
803.635	138.075
803.763	135.458
803.891	136.717
804.019	137.167
804.147	137.033
804.275	136.075
804.403	134.200
804.531	135.750
804.660	134.917
804.788	136.642
804.916	135.242
805.044	135.642
805.172	134.367
805.300	133.033
805.428	132.333
805.556	134.800
805.685	134.792
805.813	135.008
805.941	134.417
806.069	135.333
806.197	132.108
806.325	131.642
806.453	133.008
806.581	134.650
806.710	131.267
806.838	132.558
806.966	133.400
807.094	132.917
807.222	132.042
807.350	132.300
807.478	132.983
807.606	130.792
807.735	130.442
807.863	131.308
807.991	132.492
808.119	130.175
808.247	130.158
808.375	129.733
808.503	130.100
808.631	130.300
808.760	129.417
808.888	127.883
809.016	130.367
809.144	130.008
809.272	129.875
809.400	130.908
809.528	129.825
809.656	128.108
809.785	128.783
809.913	128.183
810.041	128.042
810.169	126.308
810.297	127.533
810.425	128.475
810.553	125.817
810.681	128.650
810.810	127.208
810.938	126.275
811.066	126.000
811.194	128.375
811.322	125.433
811.450	126.975
811.578	127.217
811.706	126.708
811.835	126.733
811.963	125.350
812.091	126.317
812.219	125.083
812.347	126.167
812.475	123.808
812.603	126.383
812.731	125.117
812.860	126.325
812.988	125.517
813.116	125.142
813.244	123.883
813.372	125.842
813.500	123.858
813.628	124.942
813.756	123.742
813.885	124.975
814.013	124.525
814.141	124.400
814.269	123.650
814.397	123.150
814.525	122.508
814.653	123.283
814.781	123.433
814.910	123.433
815.038	124.692
815.166	122.908
815.294	122.083
815.422	124.300
815.550	121.392
815.678	121.975
815.806	123.775
815.935	122.908
816.063	121.667
816.191	121.592
816.319	122.308
816.447	122.842
816.575	123.250
816.703	121.242
816.831	121.542
816.960	121.783
817.088	121.575
817.216	121.333
817.344	121.417
817.472	120.900
817.600	121.933
817.728	119.283
817.856	120.442
817.985	118.225
818.113	121.392
818.241	120.450
818.369	118.783
818.497	121.433
818.625	120.700
818.753	119.008
818.881	121.533
819.010	120.125
819.138	119.442
819.266	119.950
819.394	118.358
819.522	118.175
819.650	120.792
819.778	118.992
819.906	119.408
820.035	118.525
820.163	119.958
820.291	117.292
820.419	116.800
820.547	120.225
820.675	117.883
820.803	119.525
820.931	119.008
821.060	116.117
821.188	119.058
821.316	119.817
821.444	119.192
821.572	118.142
821.700	118.333
821.828	117.875
821.956	118.558
822.085	118.217
822.213	117.700
822.341	118.842
822.469	117.392
822.597	117.992
822.725	116.158
822.853	117.567
822.981	115.633
823.110	117.333
823.238	115.033
823.366	116.092
823.494	116.500
823.622	115.950
823.750	116.800
823.878	115.867
824.006	117.325
824.135	116.033
824.263	117.167
824.391	115.808
824.519	115.633
824.647	116.492
824.775	117.333
824.903	116.367
825.031	116.958
825.160	116.458
825.288	116.167
825.416	116.442
825.544	116.675
825.672	116.592
825.800	116.192
825.928	116.533
826.056	115.200
826.185	114.917
826.313	114.967
826.441	114.775
826.569	114.625
826.697	115.642
826.825	114.850
826.953	114.258
827.081	114.533
827.210	115.467
827.338	114.033
827.466	114.233
827.594	114.075
827.722	114.808
827.850	114.367
827.978	113.492
828.106	113.992
828.235	115.525
828.363	114.558
828.491	113.750
828.619	114.292
828.747	115.642
828.875	114.458
829.003	116.267
829.131	116.175
829.260	115.508
829.388	114.317
829.516	113.942
829.644	115.325
829.772	114.250
829.900	114.217
830.028	114.842
830.156	114.525
830.285	114.967
830.413	114.150
830.541	113.833
830.669	114.017
830.797	114.283
830.925	114.225
831.053	113.508
831.181	112.750
831.310	113.092
831.438	112.583
831.566	113.383
831.694	113.200
831.822	111.275
831.950	113.192
832.078	114.067
832.206	112.992
832.335	112.192
832.463	113.625
832.591	112.508
832.719	111.875
832.847	112.300
832.975	112.233
833.103	112.975
833.231	112.950
833.360	112.633
833.488	112.133
833.616	111.725
833.744	111.350
833.872	113.258
834.000	113.233
834.128	113.175
834.256	112.400
834.385	112.458
834.513	113.492
834.641	110.517
834.769	111.408
834.897	112.275
835.025	110.492
835.153	111.108
835.281	111.275
835.410	112.208
835.538	111.925
835.666	111.400
835.794	112.233
835.922	111.775
836.050	112.075
836.178	111.917
836.306	111.550
836.435	113.242
836.563	111.800
836.691	112.575
836.819	112.200
836.947	110.875
837.075	112.367
837.203	110.442
837.331	111.408
837.460	112.192
837.588	111.608
837.716	111.583
837.844	112.333
837.972	111.225
838.100	111.517
838.228	110.650
838.356	109.875
838.485	109.467
838.613	110.175
838.741	110.817
838.869	111.417
838.997	110.925
839.125	109.100
839.253	109.692
839.381	110.192
839.510	109.692
839.638	111.058
839.766	110.750
839.894	111.392
840.022	111.567
840.150	111.667
840.278	109.183
840.406	110.117
840.535	110.875
840.663	109.500
840.791	108.650
840.919	110.417
841.047	109.225
841.175	110.142
841.303	110.342
841.431	109.592
841.560	110.150
841.688	109.733
841.816	109.417
841.944	109.950
842.072	109.425
842.200	108.700
842.328	109.850
842.456	110.625
842.585	109.633
842.713	109.608
842.841	109.542
842.969	110.892
843.097	110.192
843.225	110.133
843.353	110.542
843.481	109.142
843.610	109.600
843.738	108.900
843.866	108.492
