90-130-90_at_679.99nm_cut_at_1253.50Y_01.dat
24.01.2024
13:32:52
cut middle at Y: 1253.50
top cursor: 1317 down cursor: 1190 mean of: 127 lines , 2560 datapoints
wavelength(nm)	intensity[arb. units]
515.994	350.669
516.122	331.339
516.250	329.701
516.378	325.260
516.506	324.299
516.635	325.457
516.763	326.630
516.891	328.441
517.019	336.449
517.147	328.520
517.275	332.449
517.403	327.858
517.531	327.417
517.660	330.465
517.788	327.441
517.916	332.654
518.044	328.150
518.172	331.110
518.300	328.614
518.428	327.921
518.556	333.260
518.685	334.661
518.813	333.669
518.941	334.811
519.069	334.535
519.197	334.402
519.325	333.803
519.453	336.976
519.581	340.228
519.710	334.992
519.838	334.906
519.966	337.039
520.094	337.890
520.222	336.583
520.350	339.921
520.478	343.717
520.606	340.276
520.735	346.307
520.863	342.724
520.991	344.457
521.119	344.874
521.247	347.488
521.375	345.575
521.503	348.520
521.631	347.827
521.760	350.228
521.888	346.961
522.016	349.386
522.144	352.409
522.272	356.252
522.400	355.677
522.528	355.669
522.656	356.346
522.785	359.417
522.913	355.803
523.041	355.228
523.169	352.472
523.297	351.961
523.425	357.394
523.553	358.654
523.681	357.598
523.810	358.016
523.938	360.244
524.066	357.268
524.194	359.268
524.322	357.276
524.450	354.693
524.578	360.252
524.706	360.134
524.835	359.268
524.963	362.583
525.091	360.732
525.219	355.157
525.347	355.756
525.475	358.276
525.603	358.472
525.731	363.118
525.860	360.024
525.988	361.063
526.116	359.126
526.244	362.638
526.372	359.480
526.500	362.315
526.628	363.299
526.756	360.197
526.885	362.913
527.013	361.244
527.141	366.559
527.269	361.189
527.397	362.291
527.525	362.787
527.653	365.087
527.781	362.984
527.910	366.165
528.038	370.110
528.166	366.661
528.294	367.449
528.422	365.142
528.550	365.220
528.678	369.724
528.806	374.000
528.935	375.268
529.063	373.835
529.191	370.772
529.319	372.906
529.447	373.236
529.575	371.748
529.703	376.488
529.831	375.858
529.960	374.811
530.088	375.748
530.216	376.819
530.344	375.283
530.472	380.661
530.600	377.315
530.728	377.504
530.856	380.567
530.985	378.622
531.113	380.567
531.241	381.835
531.369	381.291
531.497	379.244
531.625	383.748
531.753	385.677
531.881	381.953
532.010	381.606
532.138	381.378
532.266	381.591
532.394	381.756
532.522	384.276
532.650	382.315
532.778	387.520
532.906	384.598
533.035	385.315
533.163	381.551
533.291	383.094
533.419	380.748
533.547	378.299
533.675	381.835
533.803	378.630
533.931	379.646
534.060	380.921
534.188	387.535
534.316	383.189
534.444	380.795
534.572	380.394
534.700	385.346
534.828	383.299
534.956	383.913
535.085	390.039
535.213	387.835
535.341	380.165
535.469	385.677
535.597	388.094
535.725	387.606
535.853	386.669
535.981	395.890
536.110	394.307
536.238	391.717
536.366	397.701
536.494	394.598
536.622	396.795
536.750	394.457
536.878	399.425
537.006	400.417
537.135	400.992
537.263	400.551
537.391	398.480
537.519	404.228
537.647	400.961
537.775	401.669
537.903	402.504
538.031	404.394
538.160	405.992
538.288	406.890
538.416	405.740
538.544	403.732
538.672	406.606
538.800	408.331
538.928	411.386
539.056	407.882
539.185	409.551
539.313	410.669
539.441	411.283
539.569	409.354
539.697	408.827
539.825	412.378
539.953	413.299
540.081	410.063
540.210	410.835
540.338	413.472
540.466	412.835
540.594	412.583
540.722	408.882
540.850	410.819
540.978	417.882
541.106	414.165
541.235	420.087
541.363	412.291
541.491	417.764
541.619	409.614
541.747	416.362
541.875	412.433
542.003	411.339
542.131	412.110
542.260	413.402
542.388	411.913
542.516	414.890
542.644	422.362
542.772	415.094
542.900	415.276
543.028	412.339
543.156	417.094
543.285	415.992
543.413	416.528
543.541	417.709
543.669	417.661
543.797	416.945
543.925	418.299
544.053	419.654
544.181	420.465
544.310	415.685
544.438	413.717
544.566	422.323
544.694	420.543
544.822	420.575
544.950	422.134
545.078	422.677
545.206	424.291
545.335	425.535
545.463	420.630
545.591	420.417
545.719	420.898
545.847	424.488
545.975	425.386
546.103	424.504
546.231	425.016
546.360	425.622
546.488	424.732
546.616	427.449
546.744	428.173
546.872	429.197
547.000	428.614
547.128	431.260
547.256	428.764
547.385	431.252
547.513	425.701
547.641	438.118
547.769	433.354
547.897	428.858
548.025	435.740
548.153	430.921
548.281	431.709
548.410	438.976
548.538	430.630
548.666	433.465
548.794	433.835
548.922	435.740
549.050	440.134
549.178	438.142
549.306	440.197
549.435	444.386
549.563	435.795
549.691	428.331
549.819	441.598
549.947	439.488
550.075	438.047
550.203	436.827
550.331	432.567
550.460	444.079
550.588	438.063
550.716	443.126
550.844	435.677
550.972	436.339
551.100	439.795
551.228	434.882
551.356	437.669
551.485	439.937
551.613	437.504
551.741	434.024
551.869	432.189
551.997	434.685
552.125	432.197
552.253	434.520
552.381	432.386
552.510	433.819
552.638	427.441
552.766	436.024
552.894	429.780
553.022	431.575
553.150	430.496
553.278	429.063
553.406	426.732
553.535	428.898
553.663	429.165
553.791	432.189
553.919	426.323
554.047	432.961
554.175	432.283
554.303	428.850
554.431	425.346
554.560	432.866
554.688	438.354
554.816	431.260
554.944	428.929
555.072	435.583
555.200	433.685
555.328	429.528
555.456	434.764
555.585	436.551
555.713	436.465
555.841	439.528
555.969	430.701
556.097	439.220
556.225	438.402
556.353	439.929
556.481	438.402
556.610	439.071
556.738	440.157
556.866	442.913
556.994	443.669
557.122	440.976
557.250	447.362
557.378	442.591
557.506	439.969
557.635	442.961
557.763	442.740
557.891	450.252
558.019	443.646
558.147	450.102
558.275	444.252
558.403	450.362
558.531	453.063
558.660	450.346
558.788	447.181
558.916	448.205
559.044	448.181
559.172	452.661
559.300	455.654
559.428	448.150
559.556	455.402
559.685	458.299
559.813	456.472
559.941	456.764
560.069	458.409
560.197	455.827
560.325	458.504
560.453	452.543
560.581	454.827
560.710	451.685
560.838	458.953
560.966	456.425
561.094	461.646
561.222	457.063
561.350	455.953
561.478	455.189
561.606	459.504
561.735	454.197
561.863	456.732
561.991	454.504
562.119	454.528
562.247	454.394
562.375	454.252
562.503	453.126
562.631	457.173
562.760	453.425
562.888	457.039
563.016	453.213
563.144	452.583
563.272	454.921
563.400	452.307
563.528	452.039
563.656	456.197
563.785	454.677
563.913	453.969
564.041	454.701
564.169	455.449
564.297	452.906
564.425	454.591
564.553	459.276
564.681	456.717
564.810	454.764
564.938	455.488
565.066	451.189
565.194	457.874
565.322	455.102
565.450	456.591
565.578	463.717
565.706	460.370
565.835	459.795
565.963	459.646
566.091	456.142
566.219	458.803
566.347	458.921
566.475	461.346
566.603	457.386
566.731	462.693
566.860	460.984
566.988	461.339
567.116	470.134
567.244	462.087
567.372	467.811
567.500	466.732
567.628	469.787
567.756	464.992
567.885	473.984
568.013	470.709
568.141	469.441
568.269	473.047
568.397	471.047
568.525	472.236
568.653	478.465
568.781	473.843
568.910	480.094
569.038	482.189
569.166	472.630
569.294	475.331
569.422	480.165
569.550	477.780
569.678	479.118
569.806	484.425
569.935	486.787
570.063	485.677
570.191	491.772
570.319	489.937
570.447	481.866
570.575	487.913
570.703	488.378
570.831	495.157
570.960	494.039
571.088	490.646
571.216	490.969
571.344	489.953
571.472	494.811
571.600	494.480
571.728	493.976
571.856	494.843
571.985	500.740
572.113	503.961
572.241	499.079
572.369	499.646
572.497	491.244
572.625	505.079
572.753	501.567
572.881	504.811
573.010	500.661
573.138	506.205
573.266	509.567
573.394	503.063
573.522	505.024
573.650	501.929
573.778	506.173
573.906	508.283
574.035	508.213
574.163	507.110
574.291	508.906
574.419	508.929
574.547	513.283
574.675	510.173
574.803	509.307
574.931	504.984
575.060	513.811
575.188	506.551
575.316	505.654
575.444	514.858
575.572	511.213
575.700	510.157
575.828	516.079
575.956	513.898
576.085	504.835
576.213	509.409
576.341	509.465
576.469	513.457
576.597	512.929
576.725	510.031
576.853	508.307
576.981	512.291
577.110	504.976
577.238	512.071
577.366	506.480
577.494	508.150
577.622	510.031
577.750	505.850
577.878	513.551
578.006	513.937
578.135	508.732
578.263	508.984
578.391	517.071
578.519	503.724
578.647	510.299
578.775	508.039
578.903	506.441
579.031	508.126
579.160	513.724
579.288	512.228
579.416	509.795
579.544	512.614
579.672	513.709
579.800	512.732
579.928	513.969
580.056	510.591
580.185	511.299
580.313	515.378
580.441	512.913
580.569	508.409
580.697	509.535
580.825	512.591
580.953	516.874
581.081	514.811
581.210	519.378
581.338	518.150
581.466	518.551
581.594	519.402
581.722	513.598
581.850	518.740
581.978	514.614
582.106	515.748
582.235	525.772
582.363	512.622
582.491	519.921
582.619	520.173
582.747	527.228
582.875	528.756
583.003	531.685
583.131	530.268
583.260	528.748
583.388	528.976
583.516	532.417
583.644	532.394
583.772	535.717
583.900	536.898
584.028	536.079
584.156	537.362
584.285	540.047
584.413	542.425
584.541	546.551
584.669	542.110
584.797	545.118
584.925	535.126
585.053	544.362
585.181	549.016
585.310	550.701
585.438	551.709
585.566	544.094
585.694	555.567
585.822	557.984
585.950	556.953
586.078	562.866
586.206	558.638
586.335	560.268
586.463	560.835
586.591	564.937
586.719	561.764
586.847	563.362
586.975	566.276
587.103	565.339
587.231	557.268
587.360	566.622
587.488	571.646
587.616	571.220
587.744	568.260
587.872	565.047
588.000	564.654
588.128	576.732
588.256	571.094
588.385	569.976
588.513	571.614
588.641	573.724
588.769	579.961
588.897	577.457
589.025	576.252
589.153	579.339
589.281	574.528
589.410	578.346
589.538	574.976
589.666	576.370
589.794	573.252
589.922	582.354
590.050	582.583
590.178	572.882
590.306	584.071
590.435	581.339
590.563	580.984
590.691	585.866
590.819	580.071
590.947	590.126
591.075	581.669
591.203	584.898
591.331	586.622
591.460	584.929
591.588	580.071
591.716	585.362
591.844	587.189
591.972	586.134
592.100	583.882
592.228	586.102
592.356	589.630
592.485	587.701
592.613	589.496
592.741	592.953
592.869	588.157
592.997	590.819
593.125	595.197
593.253	595.661
593.381	595.780
593.510	602.535
593.638	599.992
593.766	595.394
593.894	596.976
594.022	599.425
594.150	590.921
594.278	601.701
594.406	598.150
594.535	595.150
594.663	608.740
594.791	602.772
594.919	604.701
595.047	606.551
595.175	602.811
595.303	614.480
595.431	612.937
595.560	614.150
595.688	611.307
595.816	611.087
595.944	615.339
596.072	618.969
596.200	615.126
596.328	614.850
596.456	622.024
596.585	623.945
596.713	628.063
596.841	626.165
596.969	621.772
597.097	619.906
597.225	629.945
597.353	628.496
597.481	628.929
597.610	632.969
597.738	630.583
597.866	622.386
597.994	637.181
598.122	639.992
598.250	627.811
598.378	636.016
598.506	639.795
598.635	635.992
598.763	639.874
598.891	637.291
599.019	644.425
599.147	633.567
599.275	644.118
599.403	643.512
599.531	643.669
599.660	642.228
599.788	646.945
599.916	649.409
600.044	642.811
600.172	648.598
600.300	650.843
600.428	650.709
600.556	656.323
600.685	651.433
600.813	653.717
600.941	656.961
601.069	656.047
601.197	664.047
601.325	665.047
601.453	664.244
601.581	666.575
601.710	666.661
601.838	668.764
601.966	662.843
602.094	670.953
602.222	672.724
602.350	672.047
602.478	668.362
602.606	679.094
602.735	678.276
602.863	683.323
602.991	684.598
603.119	683.063
603.247	677.803
603.375	688.063
603.503	684.441
603.631	689.630
603.760	688.094
603.888	689.717
604.016	692.724
604.144	692.535
604.272	696.055
604.400	701.362
604.528	688.835
604.656	707.622
604.785	704.835
604.913	700.457
605.041	705.142
605.169	713.976
605.297	707.449
605.425	713.173
605.553	716.906
605.681	708.764
605.810	714.252
605.938	713.850
606.066	711.717
606.194	718.228
606.322	711.661
606.450	726.189
606.578	727.079
606.706	724.520
606.835	724.165
606.963	725.913
607.091	731.370
607.219	725.913
607.347	728.441
607.475	732.079
607.603	730.055
607.731	723.189
607.860	726.323
607.988	722.787
608.116	729.858
608.244	732.268
608.372	728.402
608.500	730.150
608.628	734.598
608.756	730.913
608.885	733.024
609.013	728.047
609.141	737.252
609.269	731.827
609.397	733.173
609.525	732.598
609.653	728.339
609.781	738.071
609.910	735.803
610.038	729.346
610.166	735.087
610.294	735.394
610.422	740.543
610.550	731.409
610.678	734.480
610.806	738.102
610.935	737.976
611.063	733.835
611.191	732.724
611.319	735.087
611.447	732.890
611.575	740.252
611.703	734.504
611.831	737.669
611.960	736.268
612.088	740.087
612.216	738.157
612.344	731.669
612.472	737.189
612.600	738.165
612.728	734.331
612.856	744.535
612.985	736.378
613.113	741.819
613.241	743.787
613.369	742.898
613.497	739.780
613.625	737.362
613.753	734.472
613.881	738.346
614.010	742.984
614.138	739.016
614.266	741.732
614.394	737.024
614.522	739.945
614.650	744.425
614.778	743.512
614.906	756.929
615.035	745.701
615.163	745.386
615.291	749.528
615.419	750.457
615.547	747.598
615.675	748.189
615.803	757.803
615.931	759.339
616.060	755.480
616.188	748.614
616.316	757.205
616.444	759.520
616.572	757.346
616.700	756.094
616.828	767.866
616.956	762.496
617.085	773.780
617.213	767.008
617.341	755.827
617.469	761.512
617.597	767.898
617.725	770.299
617.853	764.811
617.981	764.110
618.110	773.984
618.238	768.315
618.366	781.016
618.494	774.984
618.622	776.354
618.750	776.732
618.878	775.591
619.006	784.528
619.135	788.811
619.263	788.370
619.391	786.567
619.519	779.953
619.647	791.220
619.775	793.496
619.903	799.622
620.031	799.827
620.160	799.992
620.288	795.433
620.416	801.898
620.544	807.197
620.672	808.591
620.800	805.732
620.928	806.000
621.056	813.717
621.185	809.819
621.313	812.630
621.441	820.441
621.569	822.346
621.697	821.134
621.825	829.118
621.953	827.567
622.081	830.772
622.210	823.748
622.338	823.732
622.466	822.496
622.594	839.772
622.722	833.638
622.850	837.945
622.978	833.126
623.106	831.220
623.235	847.441
623.363	841.087
623.491	839.764
623.619	840.205
623.747	848.000
623.875	841.220
624.003	840.102
624.131	846.984
624.260	835.661
624.388	852.717
624.516	855.543
624.644	846.504
624.772	852.819
624.900	853.417
625.028	843.669
625.156	854.346
625.285	843.622
625.413	855.756
625.541	851.472
625.669	858.669
625.797	854.480
625.925	856.354
626.053	857.606
626.181	866.646
626.310	852.346
626.438	860.472
626.566	852.528
626.694	860.055
626.822	865.543
626.950	866.126
627.078	867.803
627.206	863.827
627.335	865.472
627.463	878.425
627.591	866.291
627.719	865.567
627.847	865.165
627.975	865.787
628.103	860.748
628.231	872.173
628.360	869.661
628.488	874.528
628.616	867.457
628.744	872.307
628.872	860.213
629.000	869.323
629.128	873.677
629.256	880.701
629.385	871.606
629.513	872.425
629.641	875.480
629.769	870.630
629.897	875.110
630.025	874.567
630.153	884.457
630.281	877.055
630.410	870.394
630.538	881.913
630.666	880.047
630.794	880.693
630.922	880.528
631.050	874.740
631.178	878.583
631.306	878.118
631.435	877.142
631.563	885.252
631.691	878.323
631.819	883.457
631.947	881.843
632.075	878.528
632.203	882.953
632.331	886.803
632.460	882.055
632.588	879.591
632.716	889.622
632.844	881.063
632.972	885.205
633.100	888.354
633.228	890.614
633.356	885.008
633.485	880.929
633.613	893.346
633.741	881.898
633.869	883.677
633.997	887.291
634.125	888.780
634.253	873.772
634.381	880.071
634.510	892.748
634.638	882.189
634.766	888.756
634.894	884.717
635.022	878.795
635.150	892.126
635.278	897.063
635.406	885.283
635.535	888.701
635.663	898.110
635.791	877.701
635.919	898.858
636.047	887.213
636.175	882.339
636.303	889.008
636.431	897.488
636.560	891.795
636.688	887.339
636.816	886.929
636.944	884.583
637.072	895.858
637.200	884.890
637.328	883.315
637.456	898.024
637.585	896.622
637.713	889.394
637.841	883.654
637.969	885.803
638.097	887.276
638.225	896.047
638.353	899.835
638.481	892.850
638.610	903.858
638.738	899.929
638.866	889.417
638.994	892.315
639.122	891.984
639.250	898.748
639.378	894.622
639.506	892.276
639.635	902.787
639.763	895.551
639.891	903.142
640.019	903.244
640.147	899.063
640.275	899.031
640.403	902.496
640.531	902.480
640.660	901.827
640.788	908.370
640.916	904.772
641.044	914.787
641.172	896.913
641.300	909.567
641.428	907.512
641.556	914.441
641.685	913.165
641.813	907.409
641.941	909.087
642.069	910.496
642.197	918.386
642.325	910.709
642.453	920.969
642.581	920.441
642.710	918.039
642.838	922.394
642.966	914.661
643.094	914.961
643.222	918.528
643.350	913.567
643.478	925.654
643.606	921.969
643.735	920.252
643.863	920.913
643.991	929.457
644.119	928.433
644.247	923.843
644.375	923.787
644.503	931.669
644.631	928.087
644.760	926.496
644.888	931.921
645.016	938.157
645.144	934.031
645.272	931.315
645.400	932.268
645.528	933.992
645.656	926.465
645.785	931.827
645.913	931.102
646.041	943.795
646.169	932.134
646.297	926.598
646.425	930.063
646.553	926.606
646.681	934.528
646.810	932.874
646.938	931.331
647.066	927.425
647.194	938.024
647.322	938.173
647.450	929.370
647.578	938.512
647.706	934.638
647.835	930.866
647.963	929.780
648.091	927.724
648.219	931.394
648.347	932.039
648.475	928.220
648.603	925.567
648.731	928.244
648.860	921.299
648.988	926.937
649.116	930.614
649.244	915.669
649.372	919.079
649.500	919.417
649.628	916.472
649.756	920.504
649.885	913.764
650.013	914.748
650.141	914.244
650.269	901.528
650.397	911.890
650.525	916.622
650.653	906.654
650.781	903.937
650.910	910.079
651.038	890.685
651.166	905.063
651.294	902.346
651.422	898.378
651.550	896.717
651.678	887.102
651.806	886.496
651.935	894.260
652.063	885.102
652.191	880.709
652.319	887.843
652.447	885.921
652.575	883.724
652.703	873.669
652.831	876.661
652.960	878.709
653.088	872.732
653.216	867.559
653.344	873.299
653.472	872.150
653.600	873.748
653.728	868.732
653.856	866.339
653.985	866.433
654.113	870.874
654.241	874.583
654.369	864.661
654.497	872.953
654.625	861.835
654.753	867.827
654.881	863.000
655.010	867.654
655.138	863.268
655.266	865.858
655.394	855.559
655.522	860.945
655.650	852.622
655.778	858.693
655.906	854.772
656.035	856.575
656.163	859.795
656.291	861.071
656.419	844.110
656.547	855.740
656.675	848.756
656.803	848.323
656.931	849.858
657.060	844.142
657.188	850.055
657.316	854.142
657.444	852.638
657.572	850.031
657.700	847.047
657.828	847.480
657.956	850.654
658.085	857.039
658.213	853.937
658.341	852.780
658.469	845.606
658.597	852.890
658.725	853.992
658.853	839.213
658.981	841.016
659.110	848.181
659.238	844.945
659.366	847.134
659.494	837.528
659.622	846.622
659.750	841.173
659.878	841.260
660.006	848.756
660.135	843.094
660.263	838.984
660.391	840.858
660.519	843.858
660.647	833.409
660.775	837.559
660.903	835.031
661.031	837.913
661.160	840.709
661.288	838.220
661.416	837.575
661.544	836.063
661.672	830.882
661.800	834.898
661.928	834.244
662.056	830.110
662.185	825.260
662.313	832.827
662.441	836.709
662.569	830.291
662.697	829.969
662.825	829.386
662.953	830.559
663.081	826.465
663.210	825.717
663.338	837.449
663.466	820.874
663.594	812.953
663.722	818.181
663.850	822.945
663.978	815.866
664.106	827.094
664.235	823.992
664.363	826.677
664.491	814.630
664.619	821.496
664.747	823.559
664.875	815.969
665.003	812.748
665.131	822.882
665.260	819.606
665.388	808.559
665.516	812.866
665.644	813.039
665.772	812.039
665.900	815.346
666.028	811.819
666.156	808.575
666.285	809.598
666.413	808.976
666.541	804.654
666.669	809.134
666.797	805.283
666.925	806.724
667.053	809.646
667.181	806.890
667.310	794.638
667.438	796.441
667.566	797.150
667.694	799.598
667.822	794.244
667.950	804.323
668.078	790.228
668.206	801.126
668.335	798.307
668.463	803.921
668.591	793.945
668.719	788.362
668.847	792.024
668.975	787.236
669.103	790.740
669.231	795.323
669.360	786.874
669.488	792.598
669.616	790.228
669.744	787.614
669.872	784.118
670.000	793.252
670.128	782.583
670.256	784.087
670.385	782.205
670.513	783.906
670.641	785.008
670.769	782.252
670.897	775.827
671.025	783.157
671.153	781.638
671.281	784.520
671.410	778.764
671.538	769.937
671.666	774.417
671.794	773.929
671.922	767.866
672.050	769.000
672.178	771.724
672.306	765.181
672.435	768.465
672.563	766.276
672.691	771.748
672.819	771.992
672.947	765.638
673.075	760.496
673.203	764.449
673.331	765.961
673.460	757.362
673.588	757.906
673.716	757.803
673.844	756.236
673.972	756.795
674.100	755.622
674.228	756.252
674.356	744.811
674.485	742.370
674.613	741.378
674.741	742.724
674.869	741.638
674.997	738.551
675.125	742.701
675.253	738.024
675.381	736.850
675.510	732.094
675.638	735.898
675.766	733.441
675.894	727.591
676.022	722.685
676.150	726.047
676.278	731.575
676.406	724.252
676.535	721.969
676.663	721.417
676.791	718.701
676.919	719.331
677.047	713.047
677.175	706.134
677.303	711.583
677.431	711.858
677.560	703.961
677.688	706.094
677.816	706.213
677.944	705.528
678.072	699.362
678.200	697.937
678.328	694.433
678.456	693.772
678.585	691.976
678.713	692.339
678.841	686.677
678.969	693.000
679.097	688.787
679.225	680.551
679.353	691.764
679.481	678.535
679.610	685.205
679.738	678.457
679.866	674.575
679.994	685.701
680.122	680.441
680.250	672.669
680.378	670.654
680.506	664.496
680.635	662.346
680.763	665.591
680.891	659.669
681.019	666.024
681.147	659.307
681.275	651.843
681.403	654.583
681.531	659.047
681.660	652.472
681.788	648.031
681.916	649.953
682.044	657.969
682.172	643.850
682.300	642.472
682.428	651.299
682.556	648.835
682.685	646.583
682.813	646.425
682.941	641.835
683.069	638.535
683.197	640.134
683.325	628.236
683.453	633.441
683.581	626.520
683.710	621.984
683.838	635.102
683.966	634.449
684.094	628.772
684.222	625.693
684.350	625.354
684.478	626.031
684.606	630.535
684.735	623.685
684.863	620.654
684.991	619.622
685.119	619.646
685.247	619.055
685.375	613.110
685.503	618.803
685.631	617.315
685.760	613.992
685.888	615.717
686.016	610.386
686.144	607.071
686.272	611.520
686.400	615.449
686.528	607.134
686.656	608.283
686.785	603.205
686.913	607.110
687.041	601.268
687.169	604.197
687.297	598.701
687.425	596.378
687.553	597.142
687.681	605.535
687.810	596.614
687.938	595.677
688.066	596.764
688.194	595.858
688.322	598.780
688.450	592.961
688.578	594.228
688.706	590.362
688.835	590.016
688.963	589.811
689.091	591.024
689.219	585.150
689.347	582.551
689.475	585.622
689.603	578.362
689.731	580.008
689.860	583.260
689.988	589.047
690.116	583.441
690.244	584.803
690.372	581.740
690.500	576.402
690.628	575.134
690.756	572.307
690.885	576.433
691.013	571.386
691.141	576.409
691.269	578.236
691.397	571.079
691.525	574.268
691.653	574.315
691.781	575.874
691.910	568.339
692.038	565.772
692.166	568.150
692.294	562.795
692.422	564.433
692.550	564.685
692.678	564.449
692.806	558.567
692.935	561.276
693.063	556.819
693.191	552.913
693.319	553.260
693.447	552.882
693.575	555.535
693.703	548.165
693.831	549.780
693.960	548.717
694.088	551.654
694.216	541.622
694.344	543.126
694.472	551.583
694.600	539.835
694.728	540.433
694.856	535.520
694.985	544.614
695.113	537.984
695.241	534.394
695.369	538.118
695.497	534.567
695.625	540.252
695.753	527.268
695.881	527.354
696.010	528.488
696.138	528.480
696.266	524.260
696.394	527.504
696.522	518.339
696.650	517.433
696.778	511.433
696.906	517.559
697.035	516.811
697.163	510.134
697.291	513.654
697.419	512.228
697.547	505.756
697.675	507.189
697.803	502.488
697.931	505.031
698.060	499.433
698.188	506.575
698.316	505.126
698.444	499.480
698.572	497.024
698.700	494.906
698.828	499.236
698.956	491.181
699.085	484.882
699.213	488.315
699.341	485.882
699.469	481.614
699.597	485.709
699.725	489.252
699.853	483.811
699.981	484.008
700.110	477.394
700.238	480.906
700.366	478.157
700.494	474.583
700.622	478.299
700.750	472.417
700.878	471.772
701.006	466.394
701.135	471.205
701.263	470.622
701.391	463.291
701.519	465.441
701.647	463.583
701.775	465.567
701.903	461.323
702.031	465.173
702.160	461.378
702.288	458.213
702.416	457.693
702.544	457.118
702.672	455.622
702.800	453.535
702.928	449.488
703.056	450.409
703.185	452.512
703.313	448.661
703.441	448.898
703.569	439.780
703.697	453.252
703.825	446.890
703.953	441.614
704.081	443.157
704.210	439.465
704.338	444.063
704.466	433.717
704.594	437.291
704.722	439.126
704.850	437.323
704.978	437.394
705.106	434.110
705.235	433.071
705.363	433.126
705.491	430.315
705.619	429.614
705.747	431.268
705.875	429.512
706.003	420.850
706.131	424.283
706.260	418.150
706.388	421.457
706.516	418.945
706.644	422.378
706.772	419.614
706.900	411.504
707.028	416.354
707.156	415.591
707.285	419.409
707.413	411.780
707.541	409.394
707.669	405.646
707.797	410.331
707.925	404.787
708.053	406.268
708.181	407.992
708.310	406.299
708.438	402.724
708.566	401.551
708.694	399.646
708.822	399.984
708.950	398.685
709.078	389.528
709.206	397.276
709.335	395.071
709.463	393.024
709.591	392.000
709.719	390.685
709.847	389.181
709.975	391.866
710.103	383.409
710.231	387.858
710.360	375.803
710.488	383.827
710.616	378.969
710.744	380.677
710.872	381.189
711.000	377.488
711.128	370.024
711.256	371.724
711.385	373.102
711.513	372.236
711.641	372.882
711.769	372.228
711.897	370.835
712.025	363.709
712.153	365.441
712.281	365.094
712.410	365.787
712.538	362.693
712.666	359.252
712.794	358.772
712.922	360.197
713.050	356.748
713.178	356.165
713.306	356.890
713.435	354.236
713.563	354.276
713.691	356.488
713.819	354.031
713.947	344.772
714.075	352.606
714.203	345.992
714.331	351.488
714.460	346.535
714.588	346.165
714.716	340.661
714.844	340.260
714.972	336.087
715.100	342.354
715.228	342.937
715.356	340.354
715.485	338.071
715.613	335.535
715.741	331.488
715.869	331.732
715.997	334.764
716.125	331.913
716.253	332.646
716.381	333.614
716.510	331.205
716.638	332.039
716.766	325.992
716.894	326.709
717.022	324.803
717.150	329.528
717.278	325.528
717.406	327.220
717.535	320.134
717.663	323.535
717.791	322.126
717.919	317.386
718.047	322.472
718.175	321.102
718.303	317.157
718.431	317.425
718.560	317.134
718.688	315.906
718.816	313.071
718.944	312.748
719.072	314.724
719.200	310.220
719.328	312.740
719.456	309.992
719.585	314.764
719.713	311.992
719.841	308.449
719.969	307.118
720.097	303.189
720.225	301.693
720.353	306.173
720.481	306.803
720.610	306.346
720.738	300.150
720.866	297.827
720.994	301.921
721.122	301.024
721.250	300.921
721.378	296.543
721.506	298.000
721.635	295.055
721.763	294.551
721.891	295.559
722.019	294.921
722.147	294.331
722.275	289.890
722.403	291.543
722.531	291.047
722.660	289.008
722.788	287.976
722.916	285.362
723.044	285.740
723.172	287.150
723.300	285.157
723.428	284.843
723.556	284.134
723.685	284.315
723.813	280.709
723.941	279.827
724.069	285.827
724.197	284.094
724.325	277.094
724.453	274.291
724.581	276.339
724.710	273.780
724.838	274.567
724.966	269.047
725.094	274.850
725.222	270.961
725.350	272.654
725.478	269.835
725.606	268.740
725.735	267.031
725.863	269.638
725.991	267.630
726.119	264.874
726.247	264.197
726.375	266.488
726.503	264.976
726.631	264.181
726.760	260.244
726.888	261.488
727.016	259.780
727.144	261.165
727.272	258.299
727.400	257.047
727.528	257.228
727.656	256.299
727.785	254.134
727.913	256.165
728.041	252.457
728.169	254.992
728.297	253.071
728.425	251.260
728.553	254.780
728.681	251.654
728.810	250.772
728.938	246.953
729.066	245.150
729.194	246.126
729.322	245.291
729.450	247.701
729.578	246.189
729.706	243.071
729.835	244.953
729.963	243.291
730.091	240.512
730.219	241.795
730.347	242.441
730.475	234.520
730.603	240.315
730.731	238.858
730.860	238.685
730.988	237.331
731.116	238.354
731.244	238.543
731.372	233.614
731.500	234.874
731.628	233.669
731.756	234.677
731.885	232.039
732.013	233.252
732.141	230.441
732.269	229.551
732.397	230.402
732.525	231.189
732.653	232.197
732.781	229.205
732.910	228.520
733.038	226.354
733.166	227.780
733.294	228.228
733.422	225.165
733.550	226.598
733.678	225.244
733.806	227.016
733.935	225.189
734.063	222.055
734.191	223.575
734.319	223.417
734.447	223.457
734.575	222.953
734.703	218.898
734.831	221.551
734.960	219.039
735.088	217.551
735.216	222.528
735.344	219.732
735.472	216.575
735.600	219.150
735.728	219.283
735.856	215.882
735.985	214.354
736.113	217.252
736.241	216.858
736.369	217.764
736.497	213.638
736.625	216.646
736.753	213.843
736.881	213.173
737.010	213.512
737.138	210.638
737.266	213.661
737.394	211.496
737.522	210.937
737.650	210.693
737.778	214.087
737.906	209.638
738.035	208.551
738.163	209.465
738.291	207.906
738.419	205.850
738.547	206.465
738.675	206.929
738.803	208.205
738.931	208.449
739.060	208.583
739.188	205.102
739.316	206.449
739.444	206.693
739.572	207.150
739.700	202.079
739.828	201.307
739.956	203.472
740.085	205.228
740.213	202.504
740.341	198.630
740.469	202.323
740.597	200.819
740.725	201.024
740.853	200.000
740.981	199.961
741.110	196.181
741.238	202.630
741.366	202.000
741.494	201.071
741.622	200.094
741.750	199.890
741.878	200.181
742.006	194.591
742.135	195.583
742.263	197.457
742.391	191.567
742.519	198.598
742.647	195.614
742.775	196.425
742.903	194.417
743.031	193.543
743.160	194.134
743.288	192.339
743.416	192.339
743.544	189.543
743.672	194.614
743.800	193.457
743.928	192.504
744.056	191.000
744.185	191.087
744.313	191.260
744.441	189.591
744.569	191.260
744.697	190.803
744.825	186.008
744.953	188.402
745.081	187.378
745.210	186.787
745.338	186.961
745.466	185.591
745.594	188.449
745.722	185.717
745.850	185.795
745.978	186.039
746.106	186.189
746.235	184.866
746.363	186.126
746.491	182.984
746.619	182.591
746.747	184.803
746.875	184.291
747.003	184.449
747.131	184.260
747.260	181.598
747.388	183.787
747.516	187.000
747.644	182.173
747.772	181.378
747.900	180.843
748.028	179.709
748.156	178.480
748.285	180.087
748.413	177.063
748.541	179.913
748.669	178.756
748.797	179.606
748.925	177.354
749.053	179.646
749.181	178.409
749.310	177.528
749.438	177.551
749.566	176.976
749.694	177.189
749.822	177.118
749.950	176.740
750.078	177.268
750.206	177.134
750.335	171.953
750.463	176.079
750.591	174.268
750.719	176.150
750.847	170.567
750.975	174.370
751.103	171.000
751.231	171.575
751.360	172.024
751.488	171.354
751.616	171.110
751.744	170.992
751.872	170.614
752.000	170.811
752.128	170.189
752.256	170.299
752.385	169.189
752.513	168.307
752.641	165.756
752.769	166.102
752.897	168.425
753.025	165.173
753.153	167.740
753.281	165.819
753.410	166.630
753.538	165.591
753.666	165.488
753.794	165.331
753.922	167.976
754.050	164.488
754.178	164.803
754.306	164.685
754.435	164.559
754.563	165.874
754.691	164.307
754.819	161.283
754.947	163.228
755.075	165.394
755.203	165.213
755.331	162.921
755.460	163.417
755.588	162.874
755.716	162.622
755.844	162.307
755.972	159.228
756.100	161.000
756.228	161.087
756.356	158.528
756.485	164.244
756.613	163.496
756.741	159.102
756.869	158.496
756.997	161.055
757.125	160.795
757.253	157.307
757.381	158.709
757.510	160.252
757.638	159.110
757.766	158.331
757.894	155.441
758.022	158.543
758.150	159.118
758.278	156.087
758.406	156.205
758.535	157.472
758.663	158.000
758.791	156.646
758.919	154.780
759.047	156.008
759.175	156.094
759.303	154.740
759.431	154.094
759.560	153.654
759.688	155.079
759.816	155.315
759.944	156.354
760.072	152.299
760.200	150.929
760.328	155.488
760.456	153.173
760.585	152.543
760.713	152.079
760.841	150.929
760.969	150.874
761.097	152.591
761.225	151.913
761.353	151.701
761.481	153.512
761.610	149.079
761.738	151.441
761.866	151.858
761.994	150.094
762.122	149.047
762.250	150.528
762.378	149.795
762.506	147.244
762.635	150.520
762.763	148.661
762.891	149.717
763.019	148.433
763.147	145.126
763.275	147.677
763.403	146.543
763.531	145.205
763.660	145.898
763.788	147.055
763.916	145.874
764.044	147.614
764.172	148.866
764.300	145.346
764.428	143.748
764.556	145.425
764.685	146.150
764.813	143.992
764.941	144.039
765.069	145.520
765.197	145.150
765.325	144.394
765.453	143.008
765.581	145.378
765.710	143.787
765.838	143.677
765.966	143.764
766.094	142.591
766.222	144.157
766.350	143.992
766.478	144.803
766.606	141.126
766.735	142.465
766.863	140.811
766.991	140.953
767.119	141.543
767.247	141.937
767.375	141.244
767.503	141.370
767.631	142.717
767.760	139.496
767.888	139.850
768.016	140.268
768.144	140.598
768.272	141.213
768.400	140.520
768.528	138.969
768.656	139.094
768.785	139.528
768.913	137.787
769.041	139.740
769.169	137.756
769.297	139.181
769.425	137.591
769.553	138.575
769.681	138.339
769.810	141.063
769.938	136.945
770.066	137.087
770.194	137.331
770.322	137.890
770.450	137.181
770.578	137.362
770.706	138.874
770.835	135.795
770.963	137.898
771.091	135.701
771.219	135.740
771.347	137.614
771.475	136.504
771.603	135.819
771.731	136.638
771.860	135.732
771.988	136.126
772.116	135.071
772.244	134.181
772.372	135.165
772.500	134.992
772.628	136.488
772.756	133.874
772.885	135.220
773.013	135.795
773.141	132.213
773.269	132.362
773.397	135.315
773.525	134.362
773.653	133.181
773.781	131.087
773.910	132.134
774.038	132.165
774.166	133.339
774.294	133.724
774.422	131.535
774.550	132.756
774.678	133.882
774.806	131.000
774.935	133.921
775.063	132.173
775.191	132.441
775.319	132.685
775.447	131.756
775.575	131.181
775.703	131.252
775.831	131.323
775.960	131.780
776.088	131.654
776.216	131.953
776.344	131.921
776.472	130.701
776.600	130.598
776.728	129.543
776.856	130.283
776.985	130.228
777.113	131.685
777.241	128.717
777.369	129.677
777.497	127.638
777.625	129.732
777.753	128.827
777.881	129.614
778.010	127.843
778.138	128.622
778.266	126.992
778.394	128.236
778.522	128.362
778.650	129.669
778.778	127.528
778.906	127.803
779.035	128.150
779.163	125.307
779.291	128.984
779.419	127.937
779.547	127.110
779.675	127.039
779.803	128.362
779.931	125.843
780.060	127.291
780.188	126.339
780.316	128.031
780.444	127.480
780.572	125.244
780.700	126.913
780.828	124.409
780.956	127.110
781.085	127.268
781.213	124.638
781.341	126.724
781.469	126.787
781.597	125.118
781.725	125.614
781.853	127.598
781.981	125.008
782.110	125.457
782.238	123.583
782.366	124.953
782.494	123.913
782.622	125.157
782.750	126.882
782.878	124.449
783.006	124.701
783.135	123.315
783.263	122.323
783.391	123.575
783.519	122.835
783.647	122.496
783.775	122.685
783.903	123.717
784.031	122.866
784.160	122.937
784.288	123.236
784.416	121.654
784.544	121.197
784.672	120.417
784.800	123.157
784.928	121.346
785.056	122.307
785.185	122.370
785.313	122.480
785.441	122.276
785.569	121.819
785.697	122.512
785.825	120.661
785.953	119.701
786.081	121.126
786.210	121.102
786.338	118.890
786.466	120.850
786.594	120.591
786.722	121.260
786.850	121.024
786.978	119.945
787.106	119.984
787.235	119.425
787.363	121.386
787.491	120.543
787.619	119.969
787.747	118.740
787.875	119.465
788.003	119.740
788.131	119.000
788.260	119.197
788.388	119.654
788.516	119.520
788.644	119.354
788.772	117.472
788.900	120.000
789.028	118.252
789.156	119.772
789.285	118.378
789.413	116.787
789.541	120.157
789.669	116.811
789.797	116.890
789.925	119.307
790.053	118.701
790.181	118.094
790.310	118.031
790.438	117.614
790.566	117.551
790.694	117.843
790.822	117.929
790.950	117.575
791.078	116.732
791.206	117.307
791.335	117.465
791.463	117.780
791.591	117.039
791.719	117.039
791.847	116.079
791.975	115.890
792.103	115.370
792.231	116.299
792.360	116.756
792.488	115.976
792.616	117.622
792.744	116.929
792.872	115.850
793.000	115.496
793.128	115.386
793.256	115.087
793.385	114.858
793.513	116.827
793.641	115.606
793.769	115.236
793.897	115.575
794.025	116.000
794.153	115.772
794.281	116.425
794.410	113.795
794.538	116.465
794.666	115.134
794.794	114.646
794.922	115.583
795.050	114.031
795.178	114.260
795.306	113.488
795.435	114.488
795.563	114.150
795.691	114.039
795.819	114.197
795.947	113.433
796.075	113.717
796.203	114.811
796.331	114.677
796.460	113.953
796.588	113.551
796.716	113.543
796.844	113.346
796.972	115.370
797.100	113.402
797.228	114.874
797.356	115.087
797.485	113.370
797.613	113.016
797.741	113.638
797.869	114.685
797.997	113.150
798.125	112.646
798.253	112.339
798.381	113.134
798.510	112.181
798.638	112.984
798.766	111.858
798.894	112.520
799.022	113.213
799.150	112.551
799.278	112.323
799.406	113.457
799.535	112.094
799.663	112.315
799.791	111.654
799.919	112.520
800.047	111.646
800.175	112.102
800.303	111.559
800.431	111.677
800.560	110.386
800.688	111.157
800.816	112.346
800.944	110.945
801.072	112.654
801.200	112.559
801.328	111.134
801.456	113.024
801.585	112.583
801.713	112.000
801.841	112.055
801.969	111.520
802.097	112.402
802.225	111.591
802.353	111.228
802.481	111.134
802.610	112.094
802.738	110.756
802.866	111.394
802.994	110.921
803.122	111.055
803.250	111.433
803.378	111.740
803.506	111.386
803.635	111.693
803.763	111.173
803.891	112.165
804.019	111.535
804.147	111.504
804.275	110.772
804.403	110.307
804.531	110.646
804.660	110.071
804.788	109.882
804.916	110.268
805.044	110.425
805.172	111.276
805.300	110.370
805.428	110.449
805.556	110.102
805.685	111.102
805.813	111.244
805.941	109.866
806.069	110.425
806.197	110.677
806.325	109.677
806.453	110.669
806.581	110.882
806.710	109.150
806.838	109.165
806.966	109.543
807.094	110.882
807.222	109.606
807.350	109.496
807.478	109.740
807.606	109.394
807.735	109.528
807.863	109.583
807.991	109.457
808.119	108.992
808.247	108.701
808.375	109.591
808.503	109.417
808.631	109.748
808.760	109.953
808.888	108.480
809.016	109.528
809.144	110.409
809.272	110.512
809.400	109.283
809.528	110.031
809.656	109.102
809.785	108.370
809.913	108.417
810.041	109.362
810.169	108.299
810.297	109.504
810.425	108.898
810.553	107.890
810.681	109.528
810.810	109.898
810.938	109.496
811.066	108.654
811.194	108.299
811.322	108.402
811.450	108.346
811.578	108.724
811.706	108.780
811.835	108.087
811.963	108.717
812.091	108.693
812.219	107.898
812.347	108.205
812.475	108.583
812.603	108.961
812.731	108.291
812.860	108.024
812.988	108.142
813.116	108.520
813.244	108.409
813.372	108.213
813.500	108.654
813.628	109.449
813.756	107.567
813.885	107.858
814.013	107.520
814.141	108.425
814.269	107.748
814.397	107.937
814.525	107.850
814.653	107.858
814.781	107.417
814.910	107.543
815.038	107.953
815.166	108.465
815.294	108.173
815.422	108.898
815.550	107.039
815.678	107.551
815.806	107.417
815.935	106.638
816.063	107.102
816.191	106.236
816.319	107.906
816.447	108.669
816.575	108.323
816.703	107.031
816.831	107.386
816.960	108.165
817.088	107.181
817.216	107.417
817.344	107.079
817.472	108.394
817.600	107.260
817.728	106.835
817.856	107.654
817.985	106.457
818.113	107.850
818.241	107.803
818.369	106.661
818.497	108.031
818.625	105.646
818.753	106.370
818.881	107.528
819.010	105.984
819.138	106.488
819.266	107.047
819.394	106.441
819.522	105.512
819.650	107.071
819.778	106.465
819.906	106.803
820.035	106.913
820.163	106.535
820.291	105.882
820.419	106.228
820.547	107.024
820.675	104.898
820.803	106.953
820.931	106.504
821.060	105.008
821.188	106.709
821.316	105.827
821.444	107.024
821.572	107.362
821.700	106.024
821.828	107.016
821.956	106.480
822.085	106.102
822.213	106.402
822.341	106.291
822.469	105.409
822.597	105.598
822.725	105.787
822.853	106.551
822.981	105.724
823.110	107.008
823.238	105.110
823.366	106.409
823.494	105.299
823.622	105.661
823.750	106.189
823.878	104.425
824.006	106.520
824.135	106.606
824.263	106.283
824.391	105.819
824.519	107.087
824.647	106.677
824.775	106.236
824.903	106.874
825.031	107.142
825.160	106.858
825.288	105.906
825.416	105.937
825.544	106.118
825.672	106.276
825.800	105.976
825.928	106.819
826.056	105.850
826.185	106.346
826.313	106.528
826.441	106.291
826.569	105.071
826.697	106.181
826.825	105.378
826.953	106.220
827.081	105.197
827.210	104.661
827.338	104.583
827.466	105.315
827.594	106.039
827.722	105.937
827.850	106.126
827.978	104.827
828.106	105.299
828.235	106.780
828.363	106.307
828.491	105.913
828.619	105.756
828.747	105.134
828.875	106.087
829.003	106.457
829.131	106.795
829.260	106.417
829.388	106.157
829.516	106.394
829.644	105.512
829.772	105.984
829.900	105.772
830.028	105.669
830.156	105.819
830.285	105.787
830.413	106.031
830.541	105.047
830.669	105.181
830.797	105.008
830.925	105.189
831.053	105.102
831.181	105.157
831.310	105.819
831.438	104.764
831.566	105.236
831.694	105.551
831.822	104.583
831.950	105.465
832.078	106.236
832.206	105.016
832.335	104.559
832.463	105.512
832.591	105.205
832.719	104.575
832.847	104.811
832.975	104.016
833.103	105.969
833.231	104.953
833.360	105.449
833.488	104.929
833.616	104.772
833.744	103.787
833.872	105.016
834.000	106.386
834.128	106.283
834.256	105.094
834.385	104.614
834.513	105.811
834.641	104.197
834.769	104.346
834.897	104.512
835.025	104.047
835.153	103.795
835.281	104.063
835.410	105.071
835.538	105.024
835.666	104.906
835.794	104.961
835.922	104.874
836.050	105.244
836.178	104.866
836.306	104.890
836.435	105.031
836.563	104.528
836.691	104.661
836.819	105.528
836.947	104.575
837.075	104.197
837.203	103.677
837.331	105.118
837.460	104.992
837.588	105.047
837.716	105.520
837.844	104.598
837.972	104.646
838.100	104.543
838.228	104.291
838.356	103.346
838.485	103.646
838.613	103.087
838.741	104.709
838.869	104.598
838.997	104.717
839.125	102.646
839.253	104.244
839.381	104.606
839.510	104.520
839.638	104.291
839.766	103.449
839.894	104.299
840.022	104.669
840.150	104.291
840.278	104.047
840.406	104.307
840.535	104.937
840.663	103.701
840.791	103.780
840.919	104.087
841.047	104.134
841.175	104.110
841.303	104.890
841.431	103.945
841.560	103.882
841.688	104.079
841.816	104.669
841.944	103.520
842.072	104.535
842.200	104.394
842.328	105.071
842.456	104.031
842.585	104.803
842.713	104.543
842.841	104.441
842.969	104.732
843.097	104.291
843.225	104.535
843.353	103.843
843.481	103.228
843.610	104.370
843.738	103.504
843.866	103.646
