90-100-90_at_679.99nm_cut_at_1250.00Y_01.dat
24.01.2024
13:30:10
cut middle at Y: 1250.00
top cursor: 1310 down cursor: 1190 mean of: 120 lines , 2560 datapoints
wavelength(nm)	intensity[arb. units]
515.994	495.758
516.122	471.775
516.250	467.992
516.378	460.392
516.506	463.183
516.635	462.342
516.763	468.158
516.891	463.333
517.019	466.192
517.147	467.850
517.275	465.950
517.403	473.633
517.531	468.000
517.660	464.933
517.788	461.292
517.916	470.725
518.044	463.842
518.172	468.108
518.300	469.675
518.428	467.683
518.556	468.992
518.685	465.550
518.813	469.167
518.941	475.100
519.069	472.692
519.197	468.442
519.325	469.800
519.453	470.517
519.581	479.783
519.710	472.383
519.838	476.983
519.966	476.792
520.094	477.825
520.222	476.800
520.350	483.317
520.478	480.650
520.606	478.458
520.735	481.500
520.863	478.717
520.991	483.667
521.119	479.700
521.247	483.633
521.375	485.833
521.503	488.583
521.631	490.592
521.760	492.825
521.888	490.058
522.016	491.292
522.144	494.533
522.272	494.233
522.400	493.675
522.528	501.225
522.656	492.975
522.785	498.158
522.913	497.867
523.041	497.108
523.169	499.525
523.297	503.917
523.425	498.892
523.553	504.550
523.681	501.475
523.810	505.508
523.938	507.967
524.066	503.500
524.194	499.292
524.322	500.992
524.450	498.642
524.578	502.775
524.706	503.083
524.835	500.067
524.963	503.125
525.091	501.367
525.219	502.792
525.347	502.950
525.475	502.750
525.603	503.075
525.731	505.908
525.860	504.742
525.988	501.825
526.116	505.583
526.244	501.300
526.372	497.917
526.500	504.442
526.628	505.408
526.756	503.083
526.885	502.817
527.013	501.650
527.141	504.125
527.269	504.742
527.397	507.050
527.525	514.450
527.653	500.700
527.781	503.383
527.910	510.142
528.038	511.725
528.166	507.517
528.294	509.100
528.422	506.483
528.550	511.642
528.678	514.400
528.806	517.333
528.935	510.375
529.063	515.292
529.191	509.242
529.319	515.225
529.447	518.417
529.575	515.967
529.703	514.883
529.831	518.258
529.960	511.808
530.088	521.783
530.216	521.417
530.344	520.567
530.472	519.292
530.600	522.550
530.728	523.542
530.856	526.792
530.985	522.592
531.113	520.867
531.241	524.958
531.369	527.617
531.497	522.292
531.625	520.392
531.753	522.525
531.881	529.250
532.010	528.342
532.138	526.467
532.266	523.042
532.394	525.217
532.522	522.858
532.650	527.175
532.778	530.950
532.906	523.342
533.035	529.000
533.163	525.483
533.291	520.900
533.419	523.750
533.547	528.525
533.675	528.558
533.803	522.750
533.931	518.775
534.060	522.425
534.188	525.533
534.316	527.358
534.444	515.758
534.572	519.842
534.700	523.033
534.828	522.417
534.956	525.550
535.085	529.167
535.213	528.425
535.341	528.392
535.469	527.533
535.597	522.125
535.725	527.933
535.853	527.542
535.981	531.325
536.110	534.575
536.238	529.575
536.366	538.808
536.494	535.108
536.622	530.458
536.750	533.892
536.878	534.317
537.006	538.783
537.135	539.783
537.263	538.542
537.391	535.550
537.519	534.492
537.647	541.650
537.775	542.808
537.903	545.492
538.031	545.233
538.160	549.467
538.288	551.133
538.416	547.783
538.544	548.208
538.672	556.308
538.800	557.317
538.928	553.100
539.056	550.933
539.185	553.867
539.313	550.367
539.441	552.042
539.569	554.983
539.697	554.008
539.825	555.208
539.953	554.042
540.081	554.517
540.210	554.383
540.338	552.883
540.466	554.408
540.594	545.158
540.722	551.917
540.850	552.692
540.978	557.708
541.106	554.067
541.235	560.975
541.363	547.558
541.491	552.125
541.619	554.558
541.747	556.650
541.875	553.175
542.003	549.683
542.131	547.875
542.260	559.975
542.388	552.733
542.516	555.775
542.644	557.875
542.772	558.833
542.900	553.825
543.028	555.792
543.156	554.792
543.285	551.450
543.413	553.850
543.541	558.292
543.669	557.175
543.797	556.433
543.925	555.725
544.053	556.925
544.181	557.967
544.310	555.650
544.438	556.133
544.566	560.558
544.694	566.708
544.822	551.708
544.950	555.525
545.078	556.475
545.206	563.375
545.335	562.008
545.463	554.467
545.591	568.642
545.719	564.117
545.847	563.400
545.975	566.358
546.103	561.808
546.231	562.900
546.360	560.758
546.488	564.900
546.616	563.617
546.744	560.400
546.872	559.592
547.000	564.467
547.128	570.758
547.256	567.792
547.385	563.267
547.513	565.758
547.641	571.642
547.769	568.542
547.897	571.158
548.025	567.817
548.153	575.683
548.281	569.450
548.410	571.017
548.538	576.608
548.666	572.775
548.794	562.842
548.922	569.175
549.050	572.633
549.178	569.950
549.306	573.325
549.435	578.608
549.563	574.267
549.691	565.508
549.819	576.267
549.947	579.692
550.075	576.633
550.203	573.342
550.331	570.967
550.460	574.767
550.588	570.508
550.716	577.375
550.844	568.217
550.972	573.233
551.100	566.000
551.228	569.208
551.356	570.375
551.485	574.075
551.613	569.383
551.741	561.592
551.869	562.625
551.997	563.542
552.125	561.150
552.253	572.108
552.381	560.342
552.510	560.533
552.638	558.283
552.766	566.742
552.894	556.367
553.022	559.592
553.150	557.750
553.278	563.133
553.406	551.625
553.535	562.125
553.663	554.075
553.791	551.883
553.919	552.750
554.047	556.500
554.175	554.883
554.303	555.308
554.431	549.158
554.560	555.617
554.688	554.992
554.816	553.358
554.944	552.383
555.072	549.267
555.200	552.242
555.328	551.425
555.456	551.725
555.585	554.667
555.713	554.108
555.841	554.533
555.969	562.758
556.097	556.967
556.225	555.650
556.353	554.908
556.481	557.308
556.610	565.325
556.738	554.467
556.866	563.067
556.994	558.225
557.122	561.350
557.250	563.283
557.378	567.075
557.506	556.058
557.635	561.150
557.763	563.708
557.891	566.308
558.019	561.633
558.147	570.200
558.275	561.417
558.403	571.700
558.531	566.417
558.660	565.750
558.788	575.675
558.916	572.300
559.044	562.575
559.172	568.300
559.300	572.492
559.428	573.008
559.556	574.442
559.685	572.058
559.813	568.225
559.941	575.283
560.069	579.792
560.197	572.383
560.325	581.417
560.453	571.000
560.581	568.683
560.710	569.917
560.838	572.367
560.966	572.025
561.094	569.967
561.222	571.425
561.350	573.000
561.478	570.192
561.606	570.983
561.735	565.692
561.863	571.400
561.991	572.633
562.119	564.750
562.247	568.933
562.375	567.058
562.503	571.750
562.631	571.000
562.760	563.317
562.888	569.425
563.016	570.325
563.144	566.433
563.272	564.733
563.400	562.083
563.528	562.000
563.656	567.250
563.785	563.000
563.913	568.375
564.041	563.650
564.169	566.767
564.297	564.500
564.425	556.900
564.553	561.775
564.681	565.275
564.810	561.292
564.938	566.617
565.066	566.342
565.194	566.308
565.322	568.650
565.450	566.275
565.578	564.433
565.706	558.767
565.835	566.975
565.963	562.042
566.091	561.333
566.219	561.733
566.347	566.458
566.475	562.933
566.603	559.408
566.731	565.642
566.860	566.817
566.988	560.725
567.116	568.717
567.244	571.508
567.372	569.008
567.500	568.275
567.628	570.425
567.756	578.000
567.885	571.517
568.013	575.425
568.141	570.700
568.269	568.200
568.397	570.867
568.525	572.542
568.653	578.158
568.781	577.558
568.910	582.242
569.038	578.775
569.166	576.033
569.294	580.017
569.422	586.317
569.550	581.808
569.678	583.842
569.806	582.242
569.935	579.983
570.063	592.183
570.191	592.358
570.319	588.025
570.447	583.383
570.575	588.533
570.703	589.417
570.831	591.167
570.960	588.208
571.088	592.925
571.216	593.133
571.344	593.108
571.472	597.533
571.600	600.550
571.728	593.358
571.856	589.617
571.985	598.658
572.113	599.742
572.241	598.575
572.369	606.867
572.497	590.200
572.625	599.067
572.753	594.092
572.881	602.308
573.010	598.208
573.138	604.692
573.266	602.225
573.394	600.117
573.522	598.242
573.650	603.300
573.778	596.467
573.906	600.742
574.035	599.758
574.163	601.783
574.291	601.717
574.419	604.258
574.547	604.267
574.675	604.867
574.803	602.167
574.931	604.442
575.060	604.825
575.188	596.158
575.316	605.292
575.444	595.475
575.572	605.208
575.700	598.475
575.828	602.958
575.956	604.333
576.085	598.892
576.213	603.317
576.341	602.558
576.469	599.725
576.597	595.608
576.725	604.200
576.853	595.217
576.981	597.617
577.110	597.967
577.238	602.375
577.366	593.158
577.494	598.867
577.622	595.042
577.750	593.217
577.878	594.075
578.006	603.950
578.135	597.292
578.263	590.575
578.391	591.933
578.519	587.658
578.647	595.992
578.775	594.808
578.903	590.258
579.031	592.458
579.160	583.967
579.288	589.942
579.416	591.525
579.544	590.892
579.672	587.767
579.800	593.283
579.928	589.375
580.056	587.858
580.185	585.800
580.313	585.042
580.441	588.233
580.569	587.425
580.697	587.317
580.825	588.792
580.953	592.833
581.081	590.967
581.210	589.642
581.338	590.350
581.466	591.392
581.594	592.467
581.722	591.333
581.850	586.558
581.978	594.033
582.106	589.817
582.235	593.600
582.363	594.983
582.491	595.392
582.619	590.492
582.747	599.675
582.875	599.467
583.003	601.942
583.131	591.992
583.260	596.375
583.388	602.725
583.516	602.300
583.644	602.858
583.772	605.325
583.900	610.708
584.028	605.158
584.156	610.425
584.285	611.717
584.413	607.783
584.541	614.858
584.669	609.333
584.797	608.775
584.925	607.608
585.053	614.300
585.181	614.333
585.310	620.167
585.438	620.267
585.566	617.225
585.694	623.258
585.822	626.108
585.950	624.983
586.078	626.608
586.206	624.125
586.335	629.167
586.463	626.675
586.591	636.508
586.719	633.475
586.847	629.817
586.975	631.742
587.103	626.850
587.231	630.117
587.360	637.050
587.488	638.433
587.616	636.925
587.744	640.142
587.872	635.567
588.000	634.558
588.128	645.808
588.256	638.175
588.385	637.333
588.513	636.100
588.641	639.350
588.769	649.342
588.897	641.417
589.025	632.442
589.153	639.508
589.281	639.525
589.410	640.717
589.538	642.717
589.666	642.833
589.794	637.608
589.922	643.200
590.050	648.750
590.178	639.192
590.306	641.600
590.435	643.767
590.563	635.575
590.691	643.808
590.819	639.858
590.947	650.533
591.075	641.217
591.203	635.958
591.331	639.817
591.460	643.633
591.588	634.675
591.716	644.292
591.844	646.025
591.972	643.908
592.100	642.267
592.228	638.975
592.356	645.192
592.485	639.900
592.613	642.083
592.741	645.483
592.869	642.492
592.997	647.008
593.125	644.900
593.253	647.325
593.381	643.133
593.510	647.825
593.638	645.833
593.766	647.000
593.894	654.108
594.022	646.308
594.150	653.042
594.278	657.017
594.406	651.683
594.535	654.733
594.663	656.467
594.791	654.300
594.919	658.958
595.047	648.275
595.175	661.200
595.303	651.000
595.431	658.017
595.560	663.692
595.688	659.192
595.816	654.175
595.944	665.983
596.072	665.542
596.200	659.783
596.328	659.033
596.456	673.008
596.585	664.158
596.713	673.783
596.841	666.925
596.969	665.033
597.097	665.075
597.225	673.725
597.353	665.908
597.481	677.775
597.610	675.133
597.738	677.550
597.866	667.758
597.994	677.467
598.122	682.008
598.250	679.050
598.378	679.708
598.506	678.750
598.635	681.283
598.763	682.158
598.891	679.983
599.019	689.867
599.147	675.267
599.275	679.575
599.403	684.692
599.531	687.808
599.660	683.092
599.788	685.350
599.916	682.925
600.044	681.533
600.172	683.908
600.300	687.158
600.428	690.017
600.556	692.175
600.685	690.108
600.813	689.908
600.941	699.300
601.069	698.483
601.197	701.450
601.325	693.175
601.453	700.808
601.581	701.900
601.710	703.325
601.838	705.975
601.966	700.417
602.094	707.883
602.222	707.200
602.350	706.233
602.478	706.883
602.606	711.858
602.735	714.158
602.863	716.858
602.991	715.458
603.119	720.517
603.247	721.092
603.375	717.167
603.503	718.142
603.631	727.892
603.760	723.817
603.888	727.425
604.016	725.433
604.144	734.083
604.272	731.867
604.400	733.225
604.528	732.942
604.656	735.508
604.785	732.508
604.913	743.608
605.041	741.325
605.169	739.083
605.297	741.233
605.425	747.825
605.553	742.500
605.681	745.133
605.810	748.392
605.938	749.283
606.066	746.667
606.194	747.192
606.322	746.442
606.450	749.225
606.578	753.833
606.706	757.950
606.835	750.925
606.963	758.242
607.091	760.508
607.219	754.850
607.347	751.142
607.475	759.042
607.603	762.842
607.731	762.325
607.860	755.758
607.988	762.400
608.116	758.950
608.244	759.525
608.372	761.867
608.500	760.408
608.628	762.825
608.756	756.967
608.885	763.217
609.013	764.542
609.141	758.908
609.269	769.017
609.397	762.050
609.525	765.675
609.653	754.850
609.781	765.250
609.910	759.900
610.038	760.000
610.166	762.258
610.294	759.067
610.422	767.025
610.550	768.175
610.678	762.400
610.806	767.267
610.935	763.958
611.063	766.875
611.191	766.842
611.319	761.767
611.447	762.750
611.575	765.800
611.703	759.000
611.831	769.517
611.960	765.167
612.088	759.908
612.216	760.208
612.344	768.100
612.472	763.983
612.600	762.950
612.728	758.600
612.856	762.250
612.985	760.383
613.113	765.983
613.241	759.825
613.369	764.033
613.497	768.108
613.625	764.342
613.753	760.475
613.881	760.925
614.010	765.008
614.138	759.242
614.266	764.675
614.394	765.250
614.522	765.042
614.650	774.558
614.778	768.917
614.906	766.667
615.035	773.442
615.163	764.667
615.291	775.642
615.419	769.483
615.547	766.292
615.675	767.883
615.803	774.800
615.931	784.900
616.060	779.908
616.188	777.617
616.316	771.192
616.444	764.342
616.572	776.283
616.700	777.175
616.828	787.292
616.956	786.617
617.085	790.792
617.213	780.408
617.341	782.175
617.469	778.133
617.597	790.150
617.725	782.583
617.853	783.642
617.981	791.633
618.110	797.708
618.238	799.917
618.366	801.617
618.494	799.300
618.622	797.217
618.750	797.200
618.878	797.558
619.006	797.683
619.135	800.583
619.263	801.442
619.391	807.475
619.519	808.217
619.647	819.042
619.775	807.908
619.903	811.550
620.031	821.000
620.160	816.008
620.288	812.133
620.416	822.783
620.544	820.217
620.672	828.142
620.800	829.183
620.928	824.867
621.056	826.808
621.185	830.025
621.313	829.708
621.441	840.467
621.569	839.700
621.697	841.183
621.825	851.717
621.953	844.675
622.081	854.025
622.210	843.208
622.338	850.333
622.466	840.050
622.594	854.075
622.722	847.658
622.850	849.817
622.978	863.833
623.106	854.467
623.235	858.508
623.363	853.650
623.491	860.008
623.619	865.217
623.747	860.850
623.875	867.117
624.003	859.700
624.131	872.842
624.260	855.608
624.388	870.683
624.516	870.117
624.644	872.150
624.772	869.283
624.900	870.525
625.028	867.800
625.156	881.542
625.285	869.358
625.413	874.158
625.541	878.217
625.669	873.792
625.797	870.117
625.925	874.733
626.053	869.842
626.181	883.442
626.310	875.108
626.438	877.067
626.566	873.367
626.694	878.142
626.822	888.908
626.950	890.692
627.078	886.192
627.206	883.983
627.335	890.000
627.463	887.600
627.591	886.833
627.719	879.658
627.847	896.733
627.975	883.800
628.103	883.633
628.231	893.992
628.360	889.925
628.488	894.583
628.616	890.908
628.744	883.342
628.872	882.508
629.000	891.158
629.128	888.625
629.256	905.425
629.385	896.475
629.513	889.642
629.641	898.167
629.769	896.067
629.897	902.725
630.025	900.883
630.153	895.850
630.281	901.908
630.410	895.233
630.538	907.067
630.666	909.900
630.794	896.600
630.922	890.400
631.050	902.908
631.178	905.358
631.306	907.250
631.435	907.192
631.563	913.475
631.691	894.317
631.819	910.225
631.947	905.825
632.075	914.850
632.203	912.567
632.331	911.067
632.460	907.800
632.588	910.633
632.716	911.317
632.844	904.592
632.972	908.200
633.100	912.533
633.228	917.067
633.356	906.492
633.485	909.158
633.613	916.667
633.741	912.333
633.869	918.342
633.997	911.000
634.125	916.267
634.253	906.658
634.381	910.375
634.510	912.367
634.638	909.242
634.766	910.683
634.894	915.375
635.022	911.108
635.150	912.942
635.278	921.717
635.406	914.133
635.535	921.108
635.663	919.967
635.791	911.867
635.919	919.958
636.047	916.867
636.175	907.258
636.303	920.942
636.431	912.750
636.560	924.717
636.688	916.992
636.816	928.375
636.944	919.850
637.072	919.058
637.200	913.025
637.328	912.250
637.456	924.342
637.585	921.675
637.713	930.892
637.841	922.517
637.969	921.600
638.097	922.267
638.225	923.367
638.353	926.492
638.481	932.100
638.610	932.367
638.738	931.058
638.866	932.100
638.994	921.367
639.122	929.417
639.250	938.817
639.378	932.492
639.506	922.758
639.635	935.417
639.763	926.792
639.891	934.817
640.019	942.458
640.147	937.383
640.275	932.992
640.403	942.350
640.531	937.242
640.660	939.875
640.788	941.725
640.916	937.567
641.044	949.675
641.172	940.375
641.300	953.150
641.428	957.158
641.556	948.892
641.685	947.792
641.813	943.467
641.941	951.258
642.069	955.525
642.197	950.042
642.325	951.292
642.453	961.675
642.581	959.033
642.710	964.942
642.838	964.325
642.966	961.142
643.094	959.933
643.222	959.483
643.350	953.142
643.478	959.217
643.606	973.092
643.735	961.375
643.863	958.833
643.991	980.983
644.119	967.133
644.247	970.825
644.375	978.917
644.503	984.150
644.631	978.458
644.760	981.183
644.888	985.775
645.016	976.650
645.144	989.142
645.272	979.175
645.400	982.600
645.528	985.225
645.656	981.050
645.785	986.217
645.913	988.667
646.041	991.925
646.169	977.700
646.297	984.192
646.425	986.167
646.553	981.900
646.681	979.742
646.810	990.867
646.938	992.000
647.066	984.508
647.194	994.717
647.322	984.983
647.450	982.983
647.578	994.867
647.706	992.425
647.835	996.767
647.963	992.075
648.091	1000.642
648.219	989.850
648.347	989.983
648.475	984.125
648.603	992.158
648.731	993.450
648.860	985.925
648.988	993.600
649.116	993.033
649.244	977.442
649.372	987.642
649.500	982.908
649.628	984.150
649.756	978.025
649.885	977.058
650.013	974.042
650.141	970.908
650.269	977.975
650.397	976.600
650.525	976.750
650.653	982.750
650.781	976.925
650.910	977.817
651.038	968.758
651.166	972.100
651.294	959.867
651.422	966.800
651.550	960.750
651.678	953.750
651.806	967.433
651.935	958.183
652.063	951.008
652.191	961.067
652.319	963.133
652.447	955.175
652.575	955.083
652.703	947.267
652.831	949.558
652.960	950.233
653.088	951.000
653.216	941.317
653.344	946.125
653.472	946.775
653.600	946.883
653.728	938.525
653.856	937.192
653.985	942.717
654.113	938.433
654.241	942.892
654.369	934.233
654.497	945.942
654.625	939.592
654.753	944.842
654.881	943.183
655.010	940.383
655.138	933.167
655.266	933.592
655.394	926.208
655.522	934.767
655.650	919.725
655.778	939.500
655.906	934.492
656.035	934.133
656.163	930.700
656.291	932.608
656.419	936.683
656.547	940.592
656.675	928.175
656.803	935.058
656.931	935.067
657.060	933.158
657.188	938.825
657.316	937.017
657.444	930.975
657.572	934.033
657.700	926.717
657.828	928.842
657.956	931.842
658.085	946.958
658.213	938.483
658.341	935.483
658.469	928.258
658.597	940.725
658.725	941.192
658.853	933.408
658.981	921.425
659.110	933.825
659.238	934.967
659.366	935.450
659.494	930.458
659.622	931.525
659.750	934.308
659.878	935.083
660.006	929.958
660.135	933.950
660.263	930.875
660.391	918.533
660.519	929.158
660.647	934.667
660.775	931.033
660.903	926.925
661.031	922.625
661.160	934.825
661.288	933.008
661.416	935.958
661.544	925.325
661.672	931.733
661.800	934.925
661.928	930.158
662.056	922.900
662.185	919.133
662.313	926.458
662.441	932.225
662.569	929.758
662.697	922.292
662.825	929.092
662.953	932.208
663.081	917.750
663.210	928.442
663.338	924.458
663.466	919.850
663.594	916.300
663.722	917.450
663.850	915.075
663.978	917.400
664.106	928.683
664.235	920.200
664.363	931.692
664.491	917.942
664.619	926.708
664.747	922.250
664.875	917.433
665.003	916.267
665.131	927.967
665.260	918.150
665.388	905.725
665.516	911.633
665.644	908.283
665.772	914.675
665.900	917.508
666.028	918.017
666.156	920.100
666.285	908.867
666.413	914.900
666.541	911.892
666.669	909.058
666.797	903.650
666.925	909.992
667.053	913.117
667.181	904.375
667.310	901.050
667.438	897.367
667.566	899.008
667.694	905.825
667.822	903.067
667.950	909.133
668.078	900.550
668.206	906.075
668.335	907.408
668.463	902.975
668.591	896.683
668.719	895.183
668.847	901.358
668.975	895.758
669.103	887.867
669.231	909.467
669.360	892.850
669.488	899.883
669.616	898.533
669.744	897.083
669.872	890.550
670.000	906.333
670.128	888.525
670.256	898.383
670.385	891.858
670.513	900.175
670.641	891.392
670.769	897.417
670.897	885.608
671.025	882.250
671.153	891.475
671.281	898.567
671.410	890.425
671.538	883.650
671.666	884.300
671.794	894.542
671.922	883.450
672.050	880.267
672.178	891.342
672.306	882.525
672.435	880.850
672.563	888.792
672.691	872.992
672.819	884.308
672.947	881.675
673.075	868.733
673.203	871.892
673.331	867.800
673.460	867.167
673.588	866.467
673.716	870.900
673.844	873.783
673.972	877.125
674.100	867.700
674.228	873.008
674.356	856.483
674.485	861.575
674.613	855.883
674.741	852.225
674.869	861.067
674.997	856.700
675.125	847.275
675.253	842.758
675.381	849.050
675.510	847.017
675.638	851.167
675.766	841.967
675.894	851.967
676.022	842.500
676.150	842.483
676.278	841.967
676.406	841.550
676.535	835.283
676.663	839.992
676.791	829.575
676.919	833.983
677.047	835.808
677.175	821.233
677.303	825.883
677.431	825.225
677.560	820.983
677.688	829.242
677.816	821.550
677.944	817.575
678.072	812.133
678.200	817.742
678.328	806.600
678.456	809.425
678.585	805.700
678.713	805.100
678.841	803.117
678.969	801.625
679.097	807.592
679.225	795.658
679.353	802.750
679.481	791.550
679.610	800.958
679.738	787.250
679.866	792.150
679.994	789.783
680.122	788.258
680.250	790.675
680.378	785.425
680.506	789.392
680.635	778.567
680.763	784.133
680.891	782.758
681.019	787.525
681.147	774.433
681.275	769.017
681.403	782.375
681.531	781.308
681.660	774.400
681.788	770.692
681.916	766.250
682.044	779.775
682.172	757.667
682.300	760.825
682.428	765.300
682.556	762.208
682.685	766.225
682.813	763.558
682.941	751.933
683.069	756.025
683.197	762.883
683.325	756.517
683.453	757.517
683.581	748.492
683.710	742.533
683.838	757.675
683.966	745.208
684.094	751.942
684.222	750.750
684.350	745.908
684.478	742.633
684.606	744.300
684.735	744.258
684.863	745.117
684.991	737.333
685.119	737.825
685.247	738.700
685.375	729.867
685.503	742.283
685.631	736.342
685.760	736.992
685.888	742.500
686.016	732.833
686.144	736.783
686.272	727.025
686.400	732.308
686.528	731.200
686.656	732.533
686.785	721.200
686.913	732.483
687.041	720.108
687.169	729.642
687.297	722.958
687.425	717.833
687.553	717.042
687.681	729.908
687.810	726.308
687.938	717.825
688.066	724.283
688.194	729.042
688.322	723.942
688.450	715.542
688.578	718.067
688.706	720.642
688.835	711.083
688.963	717.175
689.091	720.608
689.219	701.300
689.347	709.508
689.475	708.725
689.603	703.267
689.731	710.108
689.860	703.817
689.988	714.750
690.116	701.025
690.244	707.142
690.372	709.333
690.500	698.792
690.628	708.708
690.756	699.667
690.885	697.567
691.013	690.158
691.141	704.233
691.269	702.692
691.397	701.992
691.525	700.358
691.653	703.550
691.781	690.142
691.910	695.767
692.038	687.525
692.166	687.517
692.294	685.350
692.422	683.958
692.550	682.175
692.678	687.808
692.806	682.742
692.935	682.717
693.063	679.133
693.191	676.425
693.319	680.383
693.447	672.925
693.575	672.625
693.703	676.658
693.831	676.950
693.960	676.042
694.088	672.525
694.216	668.108
694.344	664.975
694.472	670.708
694.600	667.292
694.728	665.642
694.856	659.958
694.985	662.700
695.113	659.458
695.241	659.725
695.369	662.700
695.497	657.875
695.625	662.700
695.753	650.958
695.881	649.517
696.010	646.608
696.138	645.625
696.266	638.875
696.394	642.342
696.522	638.675
696.650	636.667
696.778	635.608
696.906	638.550
697.035	632.708
697.163	629.908
697.291	624.108
697.419	632.067
697.547	628.725
697.675	620.217
697.803	625.083
697.931	624.975
698.060	617.600
698.188	618.683
698.316	619.225
698.444	618.767
698.572	607.950
698.700	614.092
698.828	611.033
698.956	599.842
699.085	606.150
699.213	596.800
699.341	600.792
699.469	602.975
699.597	597.433
699.725	600.858
699.853	597.292
699.981	593.108
700.110	589.900
700.238	596.058
700.366	590.608
700.494	590.400
700.622	585.583
700.750	574.533
700.878	590.517
701.006	576.100
701.135	577.858
701.263	577.558
701.391	577.717
701.519	579.725
701.647	574.758
701.775	573.467
701.903	572.750
702.031	566.883
702.160	570.667
702.288	565.933
702.416	566.867
702.544	562.550
702.672	564.058
702.800	563.442
702.928	562.908
703.056	559.392
703.185	550.350
703.313	558.942
703.441	554.842
703.569	551.150
703.697	560.650
703.825	553.225
703.953	554.708
704.081	548.017
704.210	546.733
704.338	548.050
704.466	539.058
704.594	540.958
704.722	540.817
704.850	542.392
704.978	537.125
705.106	536.100
705.235	528.875
705.363	535.200
705.491	537.708
705.619	535.492
705.747	528.775
705.875	534.192
706.003	524.392
706.131	526.250
706.260	521.517
706.388	524.025
706.516	517.942
706.644	519.742
706.772	521.592
706.900	510.400
707.028	514.033
707.156	518.892
707.285	505.275
707.413	509.558
707.541	510.400
707.669	507.892
707.797	505.208
707.925	504.867
708.053	503.475
708.181	499.492
708.310	497.508
708.438	496.842
708.566	495.292
708.694	498.317
708.822	490.175
708.950	491.358
709.078	487.558
709.206	484.567
709.335	479.675
709.463	479.400
709.591	486.450
709.719	486.000
709.847	478.700
709.975	485.042
710.103	477.450
710.231	473.433
710.360	472.150
710.488	470.967
710.616	469.383
710.744	469.183
710.872	466.292
711.000	462.483
711.128	461.333
711.256	464.267
711.385	457.083
711.513	460.700
711.641	460.050
711.769	456.967
711.897	460.650
712.025	453.717
712.153	452.975
712.281	449.883
712.410	446.133
712.538	447.308
712.666	446.333
712.794	446.258
712.922	445.717
713.050	443.900
713.178	443.100
713.306	444.417
713.435	440.633
713.563	437.967
713.691	436.683
713.819	438.850
713.947	434.208
714.075	429.550
714.203	433.700
714.331	429.067
714.460	427.983
714.588	429.208
714.716	431.133
714.844	428.208
714.972	423.400
715.100	426.917
715.228	423.117
715.356	422.667
715.485	423.050
715.613	417.508
715.741	415.833
715.869	415.092
715.997	413.475
716.125	412.017
716.253	409.367
716.381	413.275
716.510	411.567
716.638	411.750
716.766	413.217
716.894	414.083
717.022	404.375
717.150	401.017
717.278	409.550
717.406	406.917
717.535	406.525
717.663	400.233
717.791	400.917
717.919	398.767
718.047	397.633
718.175	400.017
718.303	394.742
718.431	394.475
718.560	396.275
718.688	391.258
718.816	386.175
718.944	389.783
719.072	390.550
719.200	386.108
719.328	389.417
719.456	389.383
719.585	388.658
719.713	384.767
719.841	384.858
719.969	381.425
720.097	379.417
720.225	379.642
720.353	378.075
720.481	380.408
720.610	373.775
720.738	374.675
720.866	375.667
720.994	374.708
721.122	375.433
721.250	374.467
721.378	372.017
721.506	371.517
721.635	372.992
721.763	368.625
721.891	369.392
722.019	363.242
722.147	360.042
722.275	365.717
722.403	361.725
722.531	363.050
722.660	361.125
722.788	358.925
722.916	354.208
723.044	354.325
723.172	350.250
723.300	356.017
723.428	357.192
723.556	347.575
723.685	350.717
723.813	351.083
723.941	345.342
724.069	348.800
724.197	347.483
724.325	344.808
724.453	346.350
724.581	342.975
724.710	341.658
724.838	342.325
724.966	335.142
725.094	338.850
725.222	336.383
725.350	332.708
725.478	338.900
725.606	335.575
725.735	333.117
725.863	336.417
725.991	327.458
726.119	331.217
726.247	327.033
726.375	326.608
726.503	329.867
726.631	328.017
726.760	323.775
726.888	324.483
727.016	324.133
727.144	321.000
727.272	321.183
727.400	320.583
727.528	320.650
727.656	313.767
727.785	316.425
727.913	316.333
728.041	314.492
728.169	315.458
728.297	308.567
728.425	312.800
728.553	309.767
728.681	306.650
728.810	306.525
728.938	303.025
729.066	307.233
729.194	307.192
729.322	303.308
729.450	301.600
729.578	299.833
729.706	299.958
729.835	302.792
729.963	300.592
730.091	298.975
730.219	296.742
730.347	294.117
730.475	294.833
730.603	291.558
730.731	289.833
730.860	293.875
730.988	290.650
731.116	292.875
731.244	288.342
731.372	286.933
731.500	286.808
731.628	285.133
731.756	285.958
731.885	284.775
732.013	282.192
732.141	279.392
732.269	284.658
732.397	283.550
732.525	281.675
732.653	280.825
732.781	278.200
732.910	276.458
733.038	276.100
733.166	274.617
733.294	279.892
733.422	278.342
733.550	275.567
733.678	275.617
733.806	274.350
733.935	271.492
734.063	269.683
734.191	273.967
734.319	272.408
734.447	271.608
734.575	269.567
734.703	267.358
734.831	267.275
734.960	268.667
735.088	264.267
735.216	267.242
735.344	262.400
735.472	263.117
735.600	261.800
735.728	266.783
735.856	259.558
735.985	265.492
736.113	259.225
736.241	260.825
736.369	261.175
736.497	258.008
736.625	257.033
736.753	258.125
736.881	257.950
737.010	259.133
737.138	255.442
737.266	256.442
737.394	255.433
737.522	255.833
737.650	258.100
737.778	252.533
737.906	249.800
738.035	251.533
738.163	251.992
738.291	247.933
738.419	247.392
738.547	248.583
738.675	248.075
738.803	249.958
738.931	248.958
739.060	244.383
739.188	245.542
739.316	244.217
739.444	244.283
739.572	244.117
739.700	242.358
739.828	243.550
739.956	241.192
740.085	241.375
740.213	241.875
740.341	239.950
740.469	239.442
740.597	236.817
740.725	242.092
740.853	237.625
740.981	238.492
741.110	238.517
741.238	239.358
741.366	238.175
741.494	238.042
741.622	234.125
741.750	236.808
741.878	238.108
742.006	232.542
742.135	232.308
742.263	232.450
742.391	229.775
742.519	234.675
742.647	231.575
742.775	232.033
742.903	230.533
743.031	231.275
743.160	230.067
743.288	230.733
743.416	225.975
743.544	224.717
743.672	226.675
743.800	223.767
743.928	228.717
744.056	224.017
744.185	227.542
744.313	223.333
744.441	222.533
744.569	223.442
744.697	222.125
744.825	222.817
744.953	220.183
745.081	223.825
745.210	219.642
745.338	219.817
745.466	219.517
745.594	219.142
745.722	222.292
745.850	217.225
745.978	219.700
746.106	216.825
746.235	216.342
746.363	217.700
746.491	213.167
746.619	217.367
746.747	215.775
746.875	215.742
747.003	213.567
747.131	212.225
747.260	212.450
747.388	211.742
747.516	214.233
747.644	211.683
747.772	210.567
747.900	213.542
748.028	213.833
748.156	205.525
748.285	210.792
748.413	207.433
748.541	208.583
748.669	206.783
748.797	207.100
748.925	206.175
749.053	208.283
749.181	205.725
749.310	205.375
749.438	205.692
749.566	202.758
749.694	204.333
749.822	205.208
749.950	207.000
750.078	203.150
750.206	202.425
750.335	203.583
750.463	201.533
750.591	198.217
750.719	202.208
750.847	198.117
750.975	197.508
751.103	200.417
751.231	199.492
751.360	199.100
751.488	200.025
751.616	196.975
751.744	196.242
751.872	193.758
752.000	195.433
752.128	195.617
752.256	195.408
752.385	194.550
752.513	193.950
752.641	191.550
752.769	194.133
752.897	192.425
753.025	188.392
753.153	190.683
753.281	193.542
753.410	189.958
753.538	189.825
753.666	191.042
753.794	191.183
753.922	189.458
754.050	188.458
754.178	189.458
754.306	185.425
754.435	190.542
754.563	188.508
754.691	186.825
754.819	185.375
754.947	185.758
755.075	186.392
755.203	185.842
755.331	183.600
755.460	183.733
755.588	184.267
755.716	183.767
755.844	183.700
755.972	180.942
756.100	182.517
756.228	185.275
756.356	180.158
756.485	185.417
756.613	182.167
756.741	181.442
756.869	182.475
756.997	179.075
757.125	177.650
757.253	180.692
757.381	180.017
757.510	180.075
757.638	177.492
757.766	178.333
757.894	178.167
758.022	175.192
758.150	175.500
758.278	178.217
758.406	174.367
758.535	175.917
758.663	176.567
758.791	174.150
758.919	175.367
759.047	176.275
759.175	174.858
759.303	172.700
759.431	171.875
759.560	172.583
759.688	174.350
759.816	175.492
759.944	171.175
760.072	171.317
760.200	171.192
760.328	173.708
760.456	171.975
760.585	170.525
760.713	172.175
760.841	168.567
760.969	170.917
761.097	170.833
761.225	169.767
761.353	166.775
761.481	170.508
761.610	169.142
761.738	167.992
761.866	169.608
761.994	168.017
762.122	165.700
762.250	169.175
762.378	164.258
762.506	167.200
762.635	165.433
762.763	164.733
762.891	166.975
763.019	163.833
763.147	165.783
763.275	166.467
763.403	164.283
763.531	162.933
763.660	160.508
763.788	164.192
763.916	160.150
764.044	162.400
764.172	164.592
764.300	162.642
764.428	159.100
764.556	162.908
764.685	161.892
764.813	160.942
764.941	159.008
765.069	160.500
765.197	160.575
765.325	160.267
765.453	158.375
765.581	161.508
765.710	159.658
765.838	158.458
765.966	160.642
766.094	158.425
766.222	157.950
766.350	157.725
766.478	158.058
766.606	155.158
766.735	156.833
766.863	155.042
766.991	153.683
767.119	153.775
767.247	153.950
767.375	154.158
767.503	154.292
767.631	157.208
767.760	154.775
767.888	152.058
768.016	153.450
768.144	152.958
768.272	153.692
768.400	151.000
768.528	154.208
768.656	154.108
768.785	152.617
768.913	151.325
769.041	149.517
769.169	151.875
769.297	151.067
769.425	151.033
769.553	151.033
769.681	150.967
769.810	152.483
769.938	149.875
770.066	148.067
770.194	150.358
770.322	151.033
770.450	149.950
770.578	149.358
770.706	150.017
770.835	149.025
770.963	148.525
771.091	146.475
771.219	148.825
771.347	149.133
771.475	147.992
771.603	146.083
771.731	147.850
771.860	147.167
771.988	146.225
772.116	146.258
772.244	145.467
772.372	147.633
772.500	147.825
772.628	146.908
772.756	146.917
772.885	146.475
773.013	145.792
773.141	144.417
773.269	146.492
773.397	145.900
773.525	143.958
773.653	145.750
773.781	142.142
773.910	145.117
774.038	143.233
774.166	143.058
774.294	143.633
774.422	142.050
774.550	140.733
774.678	142.800
774.806	141.800
774.935	144.558
775.063	141.500
775.191	143.342
775.319	140.367
775.447	142.725
775.575	140.033
775.703	141.183
775.831	141.075
775.960	141.717
776.088	140.933
776.216	139.650
776.344	141.142
776.472	141.833
776.600	140.742
776.728	138.842
776.856	139.425
776.985	140.075
777.113	140.433
777.241	140.583
777.369	138.867
777.497	134.867
777.625	136.608
777.753	137.383
777.881	137.017
778.010	137.325
778.138	136.333
778.266	136.142
778.394	136.975
778.522	136.258
778.650	137.383
778.778	134.967
778.906	137.075
779.035	137.400
779.163	135.083
779.291	134.717
779.419	136.733
779.547	137.308
779.675	136.358
779.803	136.208
779.931	135.475
780.060	136.758
780.188	134.258
780.316	135.917
780.444	134.875
780.572	133.483
780.700	134.392
780.828	133.508
780.956	134.317
781.085	133.683
781.213	133.525
781.341	133.917
781.469	133.083
781.597	134.842
781.725	132.533
781.853	134.042
781.981	131.825
782.110	132.225
782.238	131.292
782.366	132.583
782.494	133.033
782.622	130.150
782.750	132.925
782.878	131.625
783.006	131.633
783.135	129.792
783.263	129.658
783.391	132.667
783.519	130.350
783.647	131.192
783.775	129.950
783.903	129.950
784.031	128.267
784.160	129.917
784.288	130.267
784.416	128.775
784.544	128.750
784.672	128.433
784.800	128.917
784.928	127.225
785.056	129.158
785.185	128.167
785.313	127.767
785.441	127.067
785.569	128.183
785.697	127.050
785.825	128.433
785.953	128.642
786.081	127.092
786.210	125.850
786.338	126.208
786.466	127.908
786.594	125.758
786.722	127.133
786.850	126.050
786.978	126.083
787.106	125.967
787.235	124.067
787.363	127.708
787.491	126.508
787.619	126.083
787.747	125.583
787.875	126.058
788.003	125.775
788.131	124.342
788.260	125.125
788.388	125.308
788.516	125.283
788.644	125.017
788.772	123.717
788.900	125.092
789.028	123.800
789.156	124.217
789.285	123.400
789.413	123.058
789.541	124.600
789.669	123.583
789.797	122.542
789.925	123.592
790.053	123.783
790.181	123.542
790.310	123.242
790.438	122.117
790.566	123.508
790.694	121.775
790.822	122.250
790.950	122.492
791.078	122.433
791.206	120.242
791.335	123.150
791.463	122.017
791.591	122.067
791.719	121.483
791.847	120.742
791.975	119.417
792.103	120.967
792.231	123.075
792.360	119.642
792.488	119.917
792.616	120.825
792.744	121.425
792.872	119.342
793.000	120.175
793.128	120.533
793.256	120.683
793.385	119.183
793.513	121.258
793.641	121.983
793.769	119.933
793.897	120.017
794.025	120.133
794.153	120.633
794.281	119.900
794.410	117.800
794.538	120.058
794.666	120.367
794.794	119.017
794.922	118.808
795.050	118.008
795.178	118.817
795.306	116.642
795.435	117.700
795.563	117.617
795.691	117.575
795.819	117.108
795.947	118.508
796.075	118.142
796.203	118.208
796.331	116.433
796.460	118.033
796.588	118.475
796.716	118.017
796.844	117.892
796.972	118.992
797.100	115.950
797.228	118.267
797.356	119.042
797.485	116.458
797.613	117.408
797.741	116.858
797.869	117.167
797.997	115.942
798.125	116.175
798.253	116.408
798.381	115.867
798.510	115.683
798.638	116.208
798.766	115.200
798.894	116.342
799.022	115.033
799.150	116.792
799.278	115.025
799.406	115.508
799.535	116.133
799.663	116.175
799.791	114.308
799.919	114.933
800.047	115.483
800.175	116.050
800.303	115.600
800.431	115.575
800.560	114.158
800.688	115.783
800.816	114.517
800.944	114.217
801.072	115.942
801.200	115.675
801.328	115.133
801.456	115.517
801.585	116.133
801.713	114.958
801.841	114.517
801.969	114.633
802.097	114.700
802.225	114.783
802.353	114.108
802.481	113.958
802.610	113.800
802.738	114.800
802.866	113.983
802.994	112.583
803.122	113.750
803.250	114.358
803.378	114.058
803.506	113.833
803.635	114.242
803.763	113.367
803.891	114.083
804.019	113.242
804.147	113.700
804.275	112.967
804.403	112.817
804.531	112.383
804.660	112.117
804.788	112.392
804.916	111.500
805.044	112.192
805.172	112.233
805.300	111.625
805.428	111.800
805.556	111.450
805.685	113.258
805.813	112.667
805.941	111.767
806.069	113.242
806.197	112.158
806.325	111.808
806.453	113.200
806.581	112.067
806.710	111.775
806.838	111.850
806.966	112.500
807.094	111.633
807.222	112.508
807.350	113.308
807.478	112.433
807.606	111.742
807.735	113.500
807.863	112.592
807.991	110.800
808.119	110.967
808.247	112.133
808.375	111.358
808.503	110.758
808.631	112.217
808.760	110.958
808.888	110.575
809.016	111.442
809.144	110.592
809.272	112.167
809.400	112.092
809.528	111.358
809.656	110.617
809.785	110.908
809.913	111.142
810.041	111.492
810.169	111.358
810.297	110.733
810.425	110.850
810.553	109.458
810.681	110.450
810.810	110.875
810.938	111.508
811.066	109.675
811.194	109.942
811.322	110.283
811.450	111.450
811.578	110.325
811.706	110.908
811.835	110.983
811.963	110.550
812.091	109.842
812.219	110.608
812.347	111.092
812.475	110.917
812.603	111.450
812.731	109.975
812.860	109.958
812.988	110.692
813.116	110.225
813.244	111.225
813.372	109.625
813.500	109.708
813.628	110.225
813.756	108.867
813.885	109.933
814.013	109.083
814.141	110.042
814.269	109.108
814.397	109.733
814.525	109.617
814.653	109.575
814.781	109.700
814.910	108.958
815.038	109.492
815.166	110.533
815.294	108.633
815.422	109.658
815.550	108.450
815.678	108.858
815.806	108.867
815.935	109.033
816.063	109.142
816.191	109.092
816.319	108.917
816.447	109.375
816.575	109.575
816.703	108.683
816.831	109.733
816.960	110.942
817.088	108.200
817.216	108.808
817.344	109.142
817.472	109.492
817.600	108.600
817.728	108.733
817.856	109.067
817.985	107.942
818.113	108.558
818.241	108.933
818.369	108.742
818.497	109.492
818.625	108.300
818.753	107.775
818.881	109.133
819.010	108.817
819.138	108.392
819.266	108.717
819.394	107.800
819.522	107.575
819.650	108.617
819.778	106.958
819.906	108.183
820.035	108.683
820.163	108.042
820.291	107.842
820.419	107.417
820.547	108.658
820.675	106.808
820.803	109.350
820.931	107.667
821.060	106.458
821.188	108.533
821.316	107.758
821.444	108.025
821.572	107.892
821.700	108.483
821.828	108.525
821.956	108.383
822.085	108.892
822.213	108.342
822.341	108.658
822.469	106.892
822.597	107.050
822.725	107.083
822.853	107.900
822.981	107.517
823.110	107.933
823.238	106.417
823.366	108.250
823.494	106.567
823.622	106.167
823.750	107.433
823.878	105.992
824.006	108.000
824.135	107.767
824.263	107.875
824.391	106.542
824.519	108.500
824.647	107.483
824.775	108.367
824.903	107.675
825.031	108.342
825.160	108.800
825.288	107.242
825.416	107.917
825.544	107.442
825.672	108.458
825.800	107.600
825.928	108.458
826.056	107.650
826.185	107.017
826.313	107.667
826.441	107.733
826.569	107.033
826.697	106.692
826.825	107.125
826.953	107.742
827.081	106.275
827.210	106.525
827.338	105.008
827.466	106.692
827.594	106.592
827.722	107.633
827.850	106.867
827.978	106.417
828.106	106.567
828.235	108.275
828.363	107.550
828.491	107.275
828.619	106.342
828.747	107.342
828.875	106.975
829.003	107.175
829.131	107.517
829.260	108.458
829.388	107.350
829.516	107.300
829.644	107.033
829.772	107.367
829.900	107.092
830.028	107.267
830.156	106.308
830.285	107.292
830.413	106.783
830.541	106.650
830.669	107.125
830.797	106.450
830.925	106.158
831.053	105.867
831.181	106.892
831.310	106.858
831.438	106.625
831.566	107.017
831.694	105.675
831.822	106.575
831.950	106.408
832.078	105.625
832.206	106.650
832.335	106.017
832.463	107.375
832.591	106.558
832.719	106.675
832.847	106.867
832.975	105.717
833.103	106.900
833.231	106.333
833.360	106.775
833.488	106.083
833.616	105.275
833.744	105.925
833.872	106.475
834.000	106.567
834.128	106.517
834.256	106.075
834.385	106.258
834.513	107.383
834.641	105.375
834.769	105.617
834.897	106.683
835.025	105.442
835.153	105.050
835.281	105.375
835.410	105.183
835.538	105.992
835.666	106.317
835.794	106.317
835.922	106.450
836.050	106.150
836.178	105.650
836.306	106.775
836.435	106.058
836.563	105.708
836.691	106.117
836.819	106.600
836.947	105.383
837.075	105.542
837.203	105.442
837.331	106.167
837.460	106.033
837.588	105.117
837.716	106.742
837.844	106.467
837.972	106.183
838.100	105.908
838.228	105.850
838.356	105.208
838.485	104.542
838.613	104.683
838.741	105.850
838.869	105.800
838.997	105.808
839.125	103.917
839.253	105.267
839.381	105.608
839.510	105.642
839.638	104.842
839.766	104.833
839.894	104.817
840.022	107.158
840.150	106.008
840.278	105.208
840.406	105.375
840.535	105.808
840.663	105.100
840.791	105.617
840.919	105.475
841.047	104.875
841.175	104.767
841.303	105.358
841.431	105.125
841.560	104.617
841.688	105.725
841.816	105.300
841.944	105.650
842.072	105.517
842.200	105.175
842.328	105.475
842.456	105.067
842.585	105.558
842.713	105.500
842.841	105.033
842.969	105.892
843.097	105.458
843.225	105.117
843.353	104.975
843.481	105.792
843.610	105.517
843.738	104.675
843.866	104.317
