90-120-90_at_679.99nm_cut_at_1250.00Y_01.dat
24.01.2024
13:32:20
cut middle at Y: 1250.00
top cursor: 1310 down cursor: 1190 mean of: 120 lines , 2560 datapoints
wavelength(nm)	intensity[arb. units]
515.994	323.658
516.122	305.758
516.250	302.550
516.378	298.625
516.506	299.025
516.635	302.375
516.763	306.242
516.891	301.708
517.019	305.750
517.147	301.517
517.275	300.683
517.403	301.383
517.531	302.050
517.660	301.800
517.788	302.708
517.916	303.383
518.044	301.550
518.172	303.942
518.300	302.683
518.428	303.950
518.556	302.192
518.685	308.500
518.813	306.325
518.941	306.900
519.069	306.158
519.197	307.492
519.325	311.050
519.453	310.092
519.581	313.583
519.710	310.092
519.838	310.342
519.966	311.092
520.094	312.842
520.222	311.350
520.350	308.575
520.478	311.917
520.606	315.475
520.735	314.617
520.863	319.383
520.991	320.342
521.119	313.075
521.247	317.217
521.375	314.183
521.503	317.300
521.631	323.050
521.760	317.633
521.888	319.867
522.016	321.983
522.144	320.717
522.272	324.608
522.400	322.117
522.528	327.200
522.656	324.600
522.785	324.525
522.913	327.992
523.041	326.283
523.169	321.883
523.297	326.883
523.425	323.517
523.553	326.592
523.681	327.783
523.810	330.933
523.938	333.158
524.066	328.217
524.194	324.208
524.322	328.625
524.450	323.017
524.578	325.825
524.706	331.658
524.835	327.033
524.963	329.733
525.091	324.600
525.219	327.017
525.347	323.692
525.475	330.042
525.603	327.250
525.731	331.158
525.860	326.950
525.988	326.608
526.116	326.200
526.244	328.683
526.372	328.892
526.500	329.958
526.628	328.917
526.756	326.383
526.885	327.242
527.013	328.267
527.141	333.850
527.269	329.167
527.397	330.583
527.525	331.692
527.653	330.858
527.781	325.183
527.910	336.867
528.038	330.450
528.166	332.467
528.294	334.450
528.422	334.158
528.550	336.558
528.678	332.967
528.806	341.150
528.935	337.442
529.063	334.225
529.191	335.842
529.319	339.583
529.447	337.675
529.575	343.183
529.703	336.625
529.831	337.333
529.960	338.167
530.088	340.208
530.216	343.233
530.344	341.350
530.472	342.350
530.600	346.392
530.728	346.833
530.856	344.025
530.985	346.133
531.113	341.500
531.241	352.833
531.369	344.325
531.497	349.400
531.625	343.800
531.753	342.358
531.881	348.842
532.010	346.642
532.138	341.267
532.266	344.508
532.394	349.542
532.522	343.700
532.650	347.933
532.778	347.242
532.906	347.658
533.035	346.625
533.163	345.258
533.291	344.833
533.419	343.317
533.547	349.108
533.675	345.500
533.803	345.517
533.931	345.767
534.060	345.975
534.188	348.208
534.316	345.667
534.444	345.267
534.572	346.667
534.700	347.342
534.828	346.325
534.956	349.675
535.085	349.817
535.213	346.617
535.341	347.308
535.469	348.083
535.597	355.550
535.725	353.842
535.853	350.900
535.981	350.575
536.110	354.642
536.238	350.483
536.366	357.383
536.494	350.775
536.622	356.392
536.750	356.075
536.878	359.808
537.006	359.350
537.135	361.750
537.263	359.517
537.391	363.425
537.519	361.783
537.647	359.767
537.775	363.583
537.903	361.542
538.031	364.850
538.160	362.742
538.288	364.708
538.416	365.242
538.544	360.267
538.672	369.125
538.800	366.350
538.928	365.367
539.056	366.200
539.185	368.375
539.313	364.550
539.441	366.225
539.569	365.092
539.697	364.158
539.825	368.008
539.953	365.100
540.081	362.192
540.210	369.467
540.338	367.083
540.466	369.308
540.594	369.192
540.722	362.750
540.850	362.442
540.978	369.858
541.106	364.933
541.235	371.367
541.363	362.900
541.491	368.625
541.619	369.017
541.747	368.125
541.875	363.500
542.003	368.842
542.131	368.183
542.260	368.708
542.388	370.917
542.516	370.958
542.644	370.850
542.772	373.892
542.900	369.917
543.028	371.892
543.156	370.917
543.285	367.567
543.413	367.750
543.541	370.208
543.669	372.492
543.797	369.858
543.925	372.300
544.053	376.592
544.181	372.283
544.310	369.567
544.438	369.142
544.566	368.950
544.694	372.792
544.822	375.150
544.950	375.492
545.078	373.758
545.206	369.308
545.335	374.250
545.463	368.500
545.591	372.275
545.719	372.292
545.847	375.883
545.975	374.308
546.103	375.025
546.231	376.383
546.360	377.092
546.488	374.250
546.616	379.292
546.744	375.500
546.872	372.950
547.000	377.008
547.128	376.983
547.256	380.358
547.385	376.642
547.513	375.792
547.641	378.617
547.769	380.250
547.897	378.092
548.025	379.692
548.153	382.300
548.281	382.142
548.410	378.500
548.538	381.308
548.666	382.633
548.794	382.083
548.922	384.167
549.050	381.008
549.178	377.558
549.306	384.158
549.435	382.500
549.563	380.658
549.691	378.600
549.819	383.208
549.947	385.775
550.075	381.583
550.203	385.317
550.331	378.775
550.460	378.992
550.588	381.425
550.716	383.583
550.844	381.600
550.972	382.150
551.100	375.258
551.228	385.000
551.356	379.875
551.485	381.175
551.613	381.850
551.741	380.783
551.869	379.508
551.997	376.567
552.125	375.875
552.253	378.325
552.381	372.883
552.510	377.625
552.638	376.625
552.766	378.967
552.894	375.933
553.022	375.092
553.150	375.417
553.278	369.558
553.406	371.050
553.535	374.592
553.663	376.067
553.791	369.933
553.919	372.042
554.047	376.742
554.175	369.800
554.303	376.533
554.431	368.258
554.560	374.242
554.688	376.892
554.816	372.183
554.944	376.858
555.072	376.125
555.200	375.292
555.328	374.208
555.456	379.567
555.585	376.383
555.713	376.700
555.841	379.717
555.969	376.358
556.097	381.642
556.225	380.133
556.353	378.117
556.481	377.483
556.610	381.475
556.738	382.567
556.866	380.508
556.994	379.808
557.122	379.525
557.250	385.208
557.378	383.033
557.506	381.533
557.635	381.458
557.763	384.075
557.891	387.400
558.019	377.892
558.147	388.158
558.275	380.500
558.403	387.992
558.531	385.308
558.660	382.767
558.788	387.575
558.916	385.275
559.044	381.808
559.172	386.317
559.300	390.392
559.428	386.650
559.556	389.842
559.685	388.025
559.813	384.100
559.941	383.650
560.069	390.783
560.197	391.475
560.325	389.667
560.453	386.533
560.581	389.792
560.710	386.817
560.838	382.817
560.966	389.058
561.094	392.292
561.222	383.517
561.350	388.550
561.478	383.350
561.606	387.492
561.735	387.650
561.863	387.108
561.991	383.458
562.119	385.367
562.247	387.208
562.375	387.275
562.503	381.533
562.631	383.467
562.760	384.592
562.888	384.650
563.016	382.475
563.144	385.242
563.272	383.475
563.400	382.142
563.528	381.625
563.656	381.208
563.785	383.233
563.913	384.217
564.041	385.792
564.169	378.642
564.297	384.342
564.425	378.217
564.553	384.117
564.681	385.158
564.810	383.617
564.938	385.758
565.066	383.900
565.194	381.608
565.322	384.283
565.450	385.867
565.578	385.592
565.706	382.558
565.835	387.833
565.963	388.100
566.091	377.308
566.219	382.092
566.347	384.942
566.475	386.725
566.603	386.808
566.731	390.150
566.860	383.933
566.988	389.808
567.116	388.242
567.244	391.000
567.372	391.217
567.500	391.125
567.628	390.708
567.756	394.817
567.885	395.617
568.013	393.183
568.141	393.575
568.269	392.000
568.397	392.667
568.525	394.908
568.653	401.008
568.781	396.675
568.910	396.883
569.038	397.625
569.166	393.650
569.294	399.100
569.422	396.058
569.550	400.258
569.678	401.825
569.806	402.017
569.935	401.775
570.063	401.400
570.191	399.700
570.319	403.575
570.447	406.492
570.575	403.675
570.703	404.267
570.831	406.492
570.960	403.467
571.088	405.617
571.216	401.100
571.344	407.500
571.472	406.758
571.600	409.833
571.728	408.500
571.856	408.683
571.985	407.750
572.113	407.683
572.241	408.383
572.369	408.675
572.497	407.058
572.625	411.142
572.753	407.383
572.881	405.350
573.010	409.858
573.138	413.817
573.266	414.067
573.394	411.608
573.522	416.783
573.650	412.217
573.778	411.250
573.906	412.275
574.035	417.517
574.163	414.683
574.291	408.575
574.419	413.733
574.547	414.225
574.675	412.358
574.803	410.983
574.931	408.800
575.060	419.700
575.188	411.808
575.316	413.658
575.444	413.775
575.572	414.542
575.700	413.525
575.828	411.075
575.956	412.842
576.085	410.250
576.213	416.092
576.341	408.258
576.469	410.625
576.597	411.892
576.725	414.925
576.853	411.733
576.981	408.442
577.110	409.442
577.238	411.375
577.366	411.225
577.494	404.458
577.622	408.642
577.750	410.433
577.878	405.708
578.006	413.833
578.135	410.858
578.263	406.958
578.391	409.892
578.519	404.375
578.647	407.642
578.775	403.650
578.903	404.267
579.031	410.392
579.160	406.533
579.288	401.933
579.416	408.033
579.544	399.192
579.672	409.417
579.800	409.358
579.928	408.500
580.056	402.650
580.185	405.175
580.313	406.642
580.441	409.108
580.569	403.558
580.697	404.667
580.825	406.425
580.953	407.308
581.081	410.758
581.210	412.058
581.338	408.317
581.466	408.608
581.594	409.567
581.722	412.642
581.850	410.333
581.978	408.008
582.106	408.192
582.235	409.967
582.363	410.317
582.491	410.117
582.619	411.092
582.747	413.775
582.875	414.292
583.003	416.217
583.131	413.792
583.260	415.442
583.388	418.125
583.516	419.767
583.644	420.700
583.772	420.167
583.900	419.942
584.028	422.417
584.156	419.708
584.285	422.783
584.413	417.017
584.541	422.575
584.669	422.617
584.797	427.833
584.925	423.850
585.053	422.558
585.181	428.142
585.310	426.183
585.438	430.733
585.566	428.900
585.694	433.117
585.822	433.467
585.950	434.975
586.078	434.700
586.206	433.417
586.335	433.575
586.463	434.333
586.591	438.383
586.719	432.975
586.847	430.758
586.975	439.392
587.103	435.567
587.231	435.942
587.360	435.417
587.488	437.308
587.616	440.783
587.744	439.067
587.872	440.708
588.000	439.350
588.128	436.858
588.256	442.433
588.385	431.942
588.513	443.225
588.641	440.425
588.769	445.883
588.897	439.867
589.025	439.475
589.153	441.967
589.281	432.883
589.410	439.917
589.538	438.583
589.666	443.667
589.794	441.617
589.922	446.092
590.050	439.633
590.178	442.725
590.306	445.533
590.435	439.883
590.563	438.942
590.691	448.567
590.819	446.642
590.947	450.200
591.075	439.267
591.203	443.950
591.331	445.308
591.460	447.625
591.588	441.600
591.716	450.025
591.844	443.050
591.972	447.733
592.100	448.783
592.228	443.433
592.356	443.950
592.485	441.192
592.613	447.542
592.741	447.708
592.869	447.808
592.997	443.517
593.125	446.958
593.253	450.975
593.381	447.208
593.510	449.992
593.638	450.275
593.766	449.200
593.894	453.642
594.022	451.608
594.150	453.042
594.278	456.608
594.406	454.175
594.535	456.158
594.663	454.858
594.791	455.525
594.919	455.408
595.047	456.192
595.175	457.833
595.303	456.017
595.431	453.842
595.560	461.650
595.688	459.325
595.816	459.458
595.944	458.992
596.072	465.508
596.200	454.050
596.328	459.908
596.456	472.750
596.585	460.383
596.713	465.442
596.841	461.842
596.969	464.142
597.097	467.267
597.225	466.775
597.353	468.108
597.481	470.500
597.610	471.150
597.738	469.758
597.866	467.558
597.994	473.642
598.122	471.158
598.250	467.483
598.378	468.617
598.506	473.725
598.635	471.575
598.763	473.692
598.891	469.800
599.019	473.175
599.147	472.383
599.275	472.250
599.403	471.558
599.531	474.900
599.660	473.000
599.788	472.550
599.916	475.817
600.044	476.375
600.172	478.100
600.300	476.125
600.428	480.958
600.556	486.058
600.685	479.783
600.813	476.600
600.941	484.492
601.069	484.825
601.197	484.758
601.325	483.450
601.453	488.458
601.581	484.958
601.710	487.217
601.838	490.058
601.966	488.308
602.094	486.000
602.222	491.733
602.350	489.783
602.478	488.925
602.606	491.783
602.735	493.033
602.863	501.442
602.991	493.325
603.119	498.533
603.247	500.392
603.375	498.783
603.503	495.825
603.631	497.842
603.760	499.692
603.888	499.325
604.016	504.125
604.144	501.267
604.272	504.850
604.400	499.225
604.528	499.725
604.656	506.058
604.785	506.383
604.913	512.442
605.041	506.925
605.169	514.258
605.297	509.167
605.425	512.358
605.553	510.342
605.681	506.075
605.810	513.242
605.938	512.700
606.066	513.275
606.194	512.675
606.322	509.467
606.450	511.792
606.578	519.675
606.706	515.750
606.835	520.267
606.963	518.783
607.091	518.900
607.219	516.292
607.347	508.425
607.475	518.133
607.603	517.242
607.731	513.400
607.860	511.242
607.988	518.233
608.116	513.242
608.244	517.117
608.372	520.683
608.500	525.442
608.628	514.275
608.756	519.883
608.885	518.833
609.013	521.408
609.141	518.167
609.269	522.725
609.397	516.583
609.525	516.617
609.653	519.275
609.781	520.950
609.910	516.617
610.038	515.042
610.166	517.192
610.294	517.683
610.422	518.650
610.550	517.025
610.678	518.950
610.806	518.650
610.935	520.483
611.063	520.575
611.191	518.983
611.319	516.233
611.447	518.675
611.575	519.783
611.703	518.325
611.831	517.975
611.960	517.992
612.088	515.417
612.216	520.483
612.344	521.158
612.472	516.825
612.600	522.550
612.728	518.633
612.856	522.483
612.985	513.375
613.113	517.483
613.241	522.567
613.369	519.267
613.497	522.008
613.625	525.550
613.753	517.425
613.881	515.325
614.010	526.275
614.138	519.800
614.266	519.650
614.394	519.617
614.522	524.008
614.650	526.667
614.778	523.917
614.906	526.842
615.035	525.158
615.163	521.017
615.291	522.600
615.419	525.975
615.547	520.525
615.675	527.242
615.803	522.383
615.931	533.825
616.060	527.442
616.188	525.542
616.316	529.250
616.444	525.850
616.572	532.408
616.700	529.975
616.828	534.742
616.956	530.617
617.085	538.058
617.213	537.817
617.341	534.417
617.469	535.958
617.597	538.217
617.725	536.383
617.853	533.617
617.981	538.583
618.110	537.867
618.238	538.500
618.366	550.758
618.494	545.658
618.622	541.825
618.750	541.792
618.878	545.400
619.006	547.375
619.135	549.183
619.263	551.633
619.391	553.417
619.519	552.650
619.647	549.983
619.775	553.858
619.903	550.000
620.031	555.708
620.160	553.467
620.288	550.908
620.416	561.208
620.544	557.650
620.672	562.150
620.800	558.267
620.928	566.758
621.056	562.508
621.185	562.875
621.313	561.358
621.441	562.058
621.569	570.067
621.697	564.742
621.825	571.233
621.953	566.558
622.081	571.725
622.210	563.125
622.338	564.517
622.466	564.425
622.594	569.800
622.722	574.708
622.850	573.025
622.978	574.792
623.106	573.633
623.235	574.200
623.363	574.017
623.491	578.633
623.619	571.375
623.747	572.025
623.875	578.258
624.003	571.375
624.131	577.175
624.260	566.742
624.388	580.000
624.516	582.083
624.644	574.558
624.772	575.500
624.900	575.792
625.028	572.692
625.156	588.167
625.285	580.150
625.413	578.683
625.541	583.508
625.669	583.125
625.797	581.100
625.925	576.733
626.053	578.242
626.181	580.900
626.310	580.117
626.438	578.000
626.566	576.775
626.694	579.817
626.822	580.058
626.950	590.308
627.078	582.975
627.206	578.700
627.335	585.367
627.463	579.092
627.591	587.383
627.719	582.208
627.847	588.200
627.975	583.458
628.103	579.017
628.231	583.283
628.360	584.675
628.488	588.533
628.616	584.667
628.744	582.042
628.872	582.450
629.000	583.983
629.128	588.067
629.256	591.242
629.385	586.367
629.513	581.208
629.641	586.417
629.769	582.508
629.897	586.075
630.025	581.100
630.153	588.325
630.281	589.367
630.410	583.358
630.538	588.192
630.666	585.558
630.794	586.775
630.922	589.258
631.050	583.558
631.178	589.992
631.306	586.217
631.435	582.225
631.563	592.225
631.691	579.417
631.819	584.292
631.947	592.675
632.075	589.317
632.203	589.692
632.331	592.358
632.460	585.017
632.588	587.542
632.716	588.158
632.844	582.908
632.972	593.950
633.100	592.367
633.228	594.333
633.356	583.283
633.485	585.975
633.613	592.067
633.741	588.183
633.869	589.133
633.997	588.908
634.125	591.008
634.253	579.900
634.381	587.500
634.510	586.792
634.638	582.675
634.766	578.833
634.894	585.950
635.022	580.842
635.150	578.508
635.278	587.300
635.406	584.417
635.535	584.350
635.663	585.617
635.791	580.775
635.919	586.825
636.047	579.783
636.175	575.058
636.303	585.775
636.431	581.817
636.560	585.542
636.688	582.400
636.816	586.975
636.944	583.792
637.072	585.750
637.200	578.400
637.328	578.017
637.456	580.933
637.585	584.817
637.713	590.025
637.841	584.167
637.969	586.983
638.097	577.342
638.225	587.700
638.353	587.258
638.481	589.667
638.610	585.858
638.738	583.125
638.866	587.900
638.994	586.158
639.122	589.042
639.250	591.317
639.378	584.217
639.506	582.542
639.635	587.358
639.763	581.525
639.891	586.492
640.019	593.683
640.147	587.133
640.275	586.575
640.403	586.117
640.531	590.750
640.660	592.608
640.788	590.542
640.916	587.208
641.044	592.242
641.172	584.242
641.300	595.058
641.428	585.733
641.556	598.025
641.685	589.592
641.813	593.042
641.941	590.933
642.069	594.283
642.197	592.492
642.325	591.875
642.453	597.558
642.581	595.925
642.710	591.100
642.838	599.850
642.966	601.783
643.094	593.733
643.222	600.000
643.350	591.025
643.478	594.825
643.606	600.208
643.735	600.600
643.863	583.625
643.991	597.408
644.119	600.533
644.247	599.592
644.375	595.925
644.503	597.517
644.631	599.300
644.760	601.575
644.888	601.500
645.016	597.008
645.144	607.542
645.272	594.558
645.400	592.367
645.528	597.400
645.656	597.433
645.785	596.025
645.913	595.425
646.041	601.100
646.169	596.658
646.297	590.208
646.425	593.442
646.553	597.542
646.681	591.258
646.810	588.200
646.938	593.325
647.066	590.183
647.194	593.433
647.322	587.050
647.450	594.167
647.578	594.050
647.706	588.075
647.835	594.542
647.963	588.025
648.091	586.875
648.219	587.792
648.347	585.867
648.475	582.567
648.603	587.742
648.731	584.092
648.860	581.108
648.988	583.225
649.116	584.233
649.244	578.425
649.372	581.825
649.500	579.450
649.628	586.867
649.756	582.925
649.885	576.342
650.013	573.992
650.141	574.908
650.269	577.483
650.397	577.208
650.525	571.567
650.653	574.058
650.781	565.775
650.910	568.733
651.038	564.983
651.166	576.025
651.294	568.200
651.422	562.608
651.550	555.367
651.678	559.608
651.806	558.642
651.935	563.050
652.063	557.125
652.191	559.008
652.319	554.983
652.447	557.567
652.575	553.775
652.703	557.225
652.831	550.758
652.960	554.392
653.088	548.775
653.216	554.892
653.344	549.450
653.472	552.850
653.600	547.608
653.728	550.858
653.856	547.708
653.985	551.183
654.113	548.408
654.241	554.075
654.369	547.100
654.497	548.442
654.625	550.675
654.753	545.392
654.881	541.700
655.010	546.050
655.138	544.583
655.266	538.125
655.394	537.833
655.522	542.450
655.650	537.358
655.778	540.433
655.906	541.733
656.035	543.217
656.163	541.250
656.291	545.575
656.419	539.708
656.547	539.058
656.675	539.383
656.803	536.808
656.931	536.500
657.060	536.658
657.188	535.425
657.316	537.900
657.444	535.100
657.572	537.325
657.700	535.233
657.828	535.433
657.956	534.475
658.085	544.608
658.213	534.650
658.341	533.617
658.469	529.942
658.597	533.992
658.725	542.625
658.853	526.600
658.981	532.675
659.110	536.075
659.238	531.342
659.366	537.483
659.494	528.792
659.622	536.058
659.750	535.575
659.878	532.742
660.006	530.542
660.135	527.267
660.263	532.383
660.391	526.275
660.519	535.608
660.647	523.242
660.775	534.325
660.903	528.958
661.031	522.525
661.160	530.975
661.288	527.383
661.416	531.092
661.544	527.842
661.672	519.725
661.800	524.417
661.928	523.808
662.056	524.083
662.185	518.650
662.313	521.408
662.441	521.892
662.569	520.083
662.697	519.433
662.825	520.500
662.953	523.600
663.081	515.117
663.210	512.533
663.338	520.650
663.466	521.283
663.594	514.000
663.722	513.500
663.850	515.367
663.978	513.142
664.106	522.908
664.235	516.042
664.363	514.692
664.491	511.158
664.619	511.233
664.747	513.242
664.875	510.025
665.003	512.842
665.131	511.433
665.260	512.492
665.388	502.708
665.516	498.408
665.644	506.742
665.772	502.675
665.900	509.050
666.028	507.542
666.156	507.675
666.285	501.183
666.413	507.833
666.541	503.900
666.669	505.867
666.797	506.408
666.925	499.725
667.053	508.433
667.181	501.925
667.310	496.550
667.438	499.558
667.566	494.667
667.694	502.675
667.822	500.492
667.950	505.775
668.078	500.817
668.206	498.083
668.335	498.408
668.463	502.042
668.591	496.275
668.719	494.158
668.847	492.558
668.975	491.475
669.103	492.433
669.231	497.233
669.360	494.042
669.488	494.900
669.616	491.192
669.744	490.392
669.872	489.108
670.000	493.750
670.128	489.883
670.256	489.292
670.385	491.592
670.513	494.692
670.641	486.900
670.769	492.367
670.897	484.667
671.025	488.708
671.153	487.433
671.281	495.200
671.410	486.133
671.538	486.108
671.666	479.750
671.794	479.692
671.922	484.567
672.050	481.100
672.178	481.950
672.306	477.242
672.435	479.942
672.563	479.700
672.691	478.750
672.819	476.942
672.947	475.067
673.075	472.667
673.203	472.300
673.331	470.558
673.460	471.767
673.588	474.500
673.716	470.992
673.844	465.717
673.972	474.567
674.100	470.633
674.228	467.067
674.356	469.017
674.485	465.208
674.613	458.742
674.741	463.925
674.869	466.875
674.997	458.033
675.125	459.767
675.253	459.192
675.381	459.275
675.510	462.450
675.638	458.575
675.766	450.092
675.894	448.800
676.022	456.300
676.150	454.633
676.278	454.117
676.406	454.667
676.535	447.850
676.663	451.192
676.791	443.967
676.919	446.417
677.047	441.017
677.175	441.542
677.303	448.933
677.431	445.850
677.560	438.042
677.688	441.192
677.816	442.125
677.944	439.317
678.072	439.225
678.200	436.667
678.328	437.042
678.456	433.800
678.585	436.175
678.713	434.475
678.841	430.683
678.969	434.300
679.097	432.258
679.225	427.242
679.353	430.925
679.481	425.858
679.610	430.767
679.738	427.458
679.866	428.592
679.994	426.150
680.122	423.083
680.250	420.575
680.378	415.975
680.506	418.767
680.635	421.700
680.763	421.525
680.891	417.942
681.019	419.067
681.147	415.642
681.275	412.075
681.403	415.642
681.531	422.575
681.660	411.467
681.788	413.025
681.916	411.483
682.044	415.333
682.172	410.208
682.300	411.025
682.428	408.442
682.556	407.483
682.685	411.683
682.813	411.558
682.941	406.442
683.069	414.775
683.197	407.400
683.325	409.158
683.453	405.975
683.581	399.633
683.710	403.092
683.838	404.250
683.966	407.058
684.094	402.983
684.222	406.650
684.350	399.908
684.478	400.892
684.606	405.225
684.735	401.058
684.863	400.158
684.991	400.208
685.119	395.633
685.247	392.733
685.375	392.675
685.503	398.692
685.631	394.450
685.760	394.458
685.888	395.383
686.016	395.392
686.144	393.017
686.272	389.575
686.400	392.775
686.528	395.233
686.656	390.900
686.785	385.808
686.913	391.542
687.041	390.242
687.169	388.375
687.297	390.950
687.425	386.217
687.553	382.642
687.681	391.592
687.810	391.050
687.938	386.758
688.066	385.300
688.194	389.308
688.322	389.025
688.450	382.467
688.578	391.100
688.706	385.008
688.835	384.092
688.963	385.650
689.091	387.608
689.219	380.842
689.347	378.492
689.475	383.917
689.603	377.117
689.731	383.275
689.860	379.483
689.988	382.442
690.116	380.725
690.244	380.783
690.372	378.067
690.500	378.683
690.628	376.317
690.756	377.350
690.885	373.392
691.013	374.533
691.141	375.342
691.269	373.950
691.397	375.567
691.525	379.733
691.653	371.158
691.781	376.800
691.910	373.933
692.038	374.925
692.166	371.275
692.294	373.317
692.422	371.708
692.550	369.733
692.678	368.133
692.806	375.433
692.935	367.217
693.063	365.400
693.191	369.067
693.319	365.217
693.447	359.208
693.575	363.408
693.703	362.142
693.831	359.308
693.960	365.892
694.088	361.333
694.216	361.692
694.344	355.900
694.472	358.617
694.600	355.525
694.728	358.058
694.856	358.875
694.985	356.033
695.113	358.250
695.241	355.558
695.369	351.125
695.497	353.708
695.625	358.925
695.753	352.692
695.881	344.783
696.010	348.242
696.138	347.975
696.266	346.950
696.394	343.450
696.522	350.725
696.650	343.325
696.778	346.783
696.906	346.908
697.035	344.908
697.163	344.033
697.291	342.325
697.419	344.150
697.547	338.458
697.675	335.425
697.803	336.967
697.931	339.050
698.060	334.908
698.188	336.692
698.316	339.033
698.444	332.275
698.572	329.625
698.700	334.283
698.828	329.800
698.956	327.042
699.085	331.358
699.213	326.400
699.341	322.908
699.469	328.008
699.597	328.892
699.725	324.483
699.853	325.158
699.981	325.758
700.110	322.025
700.238	324.533
700.366	321.092
700.494	318.667
700.622	318.558
700.750	318.600
700.878	320.417
701.006	316.175
701.135	319.367
701.263	315.792
701.391	317.750
701.519	316.567
701.647	315.242
701.775	318.758
701.903	316.567
702.031	315.167
702.160	310.000
702.288	311.842
702.416	312.650
702.544	311.075
702.672	313.133
702.800	309.892
702.928	311.458
703.056	310.225
703.185	306.008
703.313	307.867
703.441	306.758
703.569	303.983
703.697	305.017
703.825	306.742
703.953	305.958
704.081	300.425
704.210	307.133
704.338	304.625
704.466	295.150
704.594	299.750
704.722	298.992
704.850	299.858
704.978	296.908
705.106	298.250
705.235	296.367
705.363	296.425
705.491	297.433
705.619	296.508
705.747	297.383
705.875	295.617
706.003	294.275
706.131	294.775
706.260	298.150
706.388	294.767
706.516	289.550
706.644	291.825
706.772	291.842
706.900	287.525
707.028	286.608
707.156	290.033
707.285	282.075
707.413	285.000
707.541	284.075
707.669	283.800
707.797	281.392
707.925	282.625
708.053	283.908
708.181	282.392
708.310	282.392
708.438	279.492
708.566	282.683
708.694	278.508
708.822	282.992
708.950	279.383
709.078	273.617
709.206	277.850
709.335	277.242
709.463	270.350
709.591	273.942
709.719	274.133
709.847	272.092
709.975	274.533
710.103	267.150
710.231	269.400
710.360	267.550
710.488	267.125
710.616	266.675
710.744	266.392
710.872	267.075
711.000	270.742
711.128	263.308
711.256	264.133
711.385	263.992
711.513	266.175
711.641	263.658
711.769	262.558
711.897	264.342
712.025	259.250
712.153	261.850
712.281	261.167
712.410	259.258
712.538	258.550
712.666	257.558
712.794	258.208
712.922	256.317
713.050	255.267
713.178	255.942
713.306	258.792
713.435	256.825
713.563	254.458
713.691	257.200
713.819	253.533
713.947	250.300
714.075	250.842
714.203	252.467
714.331	250.933
714.460	251.792
714.588	251.950
714.716	249.367
714.844	249.300
714.972	248.000
715.100	247.225
715.228	249.533
715.356	248.200
715.485	247.317
715.613	245.117
715.741	245.308
715.869	244.192
715.997	243.717
716.125	242.733
716.253	243.883
716.381	242.783
716.510	244.592
716.638	242.383
716.766	241.317
716.894	239.325
717.022	241.525
717.150	239.517
717.278	239.233
717.406	240.275
717.535	237.867
717.663	236.525
717.791	238.600
717.919	234.842
718.047	238.217
718.175	238.858
718.303	239.575
718.431	238.333
718.560	237.408
718.688	233.683
718.816	232.492
718.944	236.508
719.072	235.250
719.200	228.358
719.328	232.492
719.456	232.908
719.585	235.750
719.713	231.658
719.841	229.417
719.969	229.808
720.097	229.975
720.225	229.467
720.353	230.408
720.481	228.492
720.610	227.383
720.738	224.758
720.866	224.475
720.994	227.925
721.122	228.525
721.250	228.058
721.378	220.367
721.506	223.042
721.635	225.225
721.763	223.067
721.891	220.883
722.019	221.267
722.147	219.533
722.275	217.825
722.403	219.417
722.531	222.150
722.660	218.075
722.788	220.242
722.916	218.292
723.044	218.842
723.172	218.950
723.300	218.025
723.428	221.142
723.556	215.433
723.685	216.767
723.813	218.675
723.941	216.258
724.069	215.567
724.197	213.683
724.325	212.833
724.453	210.342
724.581	213.408
724.710	211.517
724.838	212.892
724.966	210.925
725.094	210.300
725.222	209.108
725.350	208.150
725.478	208.858
725.606	207.083
725.735	208.050
725.863	210.167
725.991	205.492
726.119	207.708
726.247	203.875
726.375	204.025
726.503	206.500
726.631	207.533
726.760	204.667
726.888	205.500
727.016	201.667
727.144	201.133
727.272	202.983
727.400	202.025
727.528	200.025
727.656	198.317
727.785	201.108
727.913	198.392
728.041	199.233
728.169	201.308
728.297	197.408
728.425	197.500
728.553	196.700
728.681	194.642
728.810	194.475
728.938	195.883
729.066	199.308
729.194	196.533
729.322	196.717
729.450	193.133
729.578	194.583
729.706	194.208
729.835	194.958
729.963	194.400
730.091	189.525
730.219	194.125
730.347	193.392
730.475	188.783
730.603	190.700
730.731	193.317
730.860	191.492
730.988	189.550
731.116	190.817
731.244	191.433
731.372	188.267
731.500	186.858
731.628	189.058
731.756	186.358
731.885	187.392
732.013	185.383
732.141	186.342
732.269	186.250
732.397	182.925
732.525	184.333
732.653	184.558
732.781	184.733
732.910	184.833
733.038	186.292
733.166	186.017
733.294	185.608
733.422	183.558
733.550	184.917
733.678	182.908
733.806	185.242
733.935	180.808
734.063	183.250
734.191	183.325
734.319	180.767
734.447	179.892
734.575	181.683
734.703	180.525
734.831	179.975
734.960	179.900
735.088	178.708
735.216	177.700
735.344	177.858
735.472	177.600
735.600	176.417
735.728	174.092
735.856	176.892
735.985	175.750
736.113	177.733
736.241	175.567
736.369	178.108
736.497	174.275
736.625	179.425
736.753	175.400
736.881	172.508
737.010	172.600
737.138	174.967
737.266	174.033
737.394	174.850
737.522	173.967
737.650	173.517
737.778	173.433
737.906	172.467
738.035	172.183
738.163	173.458
738.291	171.242
738.419	171.867
738.547	173.108
738.675	169.758
738.803	170.017
738.931	171.825
739.060	170.325
739.188	170.350
739.316	168.817
739.444	168.233
739.572	169.925
739.700	169.500
739.828	166.708
739.956	169.017
740.085	170.308
740.213	166.475
740.341	167.867
740.469	166.217
740.597	166.667
740.725	169.025
740.853	166.267
740.981	163.067
741.110	163.992
741.238	166.200
741.366	167.433
741.494	163.592
741.622	164.258
741.750	165.000
741.878	166.083
742.006	162.417
742.135	163.500
742.263	162.158
742.391	158.450
742.519	161.783
742.647	162.867
742.775	163.850
742.903	164.275
743.031	162.225
743.160	162.808
743.288	161.383
743.416	158.300
743.544	157.767
743.672	161.058
743.800	162.425
743.928	160.325
744.056	157.817
744.185	158.600
744.313	158.242
744.441	160.283
744.569	159.825
744.697	159.467
744.825	158.200
744.953	160.008
745.081	157.600
745.210	158.150
745.338	159.242
745.466	157.925
745.594	157.142
745.722	156.717
745.850	156.125
745.978	156.017
746.106	157.667
746.235	154.933
746.363	157.367
746.491	154.608
746.619	156.625
746.747	154.850
746.875	153.342
747.003	154.242
747.131	152.667
747.260	155.608
747.388	154.808
747.516	154.658
747.644	152.183
747.772	152.983
747.900	152.500
748.028	153.950
748.156	151.942
748.285	153.575
748.413	152.292
748.541	152.467
748.669	151.975
748.797	149.917
748.925	148.717
749.053	148.300
749.181	149.258
749.310	150.667
749.438	151.792
749.566	149.775
749.694	148.342
749.822	150.408
749.950	149.625
750.078	149.283
750.206	150.100
750.335	147.342
750.463	149.475
750.591	148.808
750.719	148.867
750.847	144.008
750.975	147.475
751.103	146.442
751.231	146.625
751.360	148.908
751.488	146.058
751.616	144.883
751.744	145.217
751.872	143.858
752.000	145.600
752.128	145.225
752.256	144.942
752.385	144.333
752.513	142.150
752.641	142.867
752.769	142.908
752.897	145.125
753.025	142.125
753.153	147.092
753.281	145.975
753.410	143.558
753.538	144.208
753.666	143.783
753.794	144.108
753.922	143.267
754.050	141.483
754.178	141.750
754.306	141.550
754.435	141.525
754.563	142.008
754.691	143.300
754.819	142.125
754.947	140.475
755.075	141.150
755.203	141.983
755.331	142.175
755.460	139.383
755.588	141.967
755.716	139.183
755.844	141.300
755.972	138.983
756.100	140.175
756.228	139.108
756.356	138.392
756.485	140.617
756.613	139.158
756.741	137.575
756.869	136.825
756.997	138.075
757.125	139.967
757.253	137.808
757.381	137.475
757.510	138.125
757.638	137.800
757.766	138.175
757.894	137.483
758.022	136.800
758.150	136.142
758.278	138.517
758.406	136.975
758.535	137.008
758.663	137.542
758.791	136.767
758.919	134.317
759.047	138.292
759.175	136.250
759.303	134.767
759.431	134.617
759.560	134.358
759.688	137.342
759.816	136.375
759.944	136.683
760.072	135.817
760.200	133.383
760.328	137.133
760.456	134.842
760.585	135.100
760.713	135.650
760.841	134.875
760.969	134.933
761.097	132.725
761.225	133.842
761.353	132.333
761.481	133.583
761.610	132.200
761.738	132.325
761.866	133.408
761.994	129.917
762.122	132.433
762.250	135.100
762.378	131.375
762.506	132.092
762.635	132.683
762.763	131.867
762.891	130.958
763.019	131.200
763.147	131.250
763.275	131.192
763.403	130.483
763.531	128.733
763.660	130.267
763.788	132.617
763.916	129.983
764.044	130.267
764.172	130.067
764.300	129.592
764.428	130.050
764.556	129.908
764.685	129.650
764.813	127.992
764.941	128.817
765.069	128.733
765.197	129.292
765.325	127.275
765.453	129.325
765.581	129.142
765.710	127.508
765.838	129.583
765.966	128.642
766.094	127.850
766.222	129.308
766.350	128.733
766.478	128.642
766.606	125.992
766.735	127.608
766.863	127.700
766.991	127.317
767.119	127.425
767.247	128.333
767.375	126.150
767.503	127.433
767.631	127.050
767.760	126.308
767.888	126.117
768.016	126.525
768.144	127.075
768.272	125.158
768.400	126.158
768.528	126.492
768.656	126.350
768.785	126.767
768.913	126.000
769.041	125.683
769.169	125.433
769.297	124.475
769.425	125.767
769.553	123.383
769.681	123.650
769.810	127.500
769.938	124.125
770.066	123.042
770.194	125.142
770.322	125.692
770.450	125.983
770.578	125.808
770.706	124.750
770.835	124.475
770.963	124.275
771.091	123.717
771.219	124.825
771.347	123.883
771.475	123.942
771.603	123.033
771.731	124.425
771.860	124.458
771.988	123.008
772.116	122.892
772.244	123.458
772.372	121.925
772.500	123.133
772.628	123.633
772.756	124.175
772.885	123.017
773.013	123.258
773.141	120.758
773.269	122.233
773.397	122.783
773.525	122.433
773.653	122.958
773.781	121.908
773.910	119.783
774.038	120.158
774.166	121.733
774.294	123.100
774.422	121.658
774.550	122.158
774.678	121.725
774.806	119.942
774.935	122.217
775.063	120.875
775.191	121.292
775.319	120.017
775.447	122.317
775.575	121.283
775.703	122.233
775.831	119.058
775.960	121.117
776.088	119.667
776.216	121.808
776.344	120.283
776.472	120.208
776.600	120.350
776.728	119.567
776.856	118.442
776.985	119.683
777.113	120.333
777.241	119.833
777.369	120.425
777.497	118.367
777.625	119.083
777.753	118.875
777.881	117.742
778.010	117.333
778.138	117.800
778.266	116.825
778.394	119.967
778.522	119.533
778.650	119.158
778.778	117.900
778.906	118.192
779.035	119.300
779.163	117.817
779.291	118.133
779.419	119.000
779.547	118.658
779.675	118.033
779.803	117.883
779.931	116.792
780.060	117.050
780.188	118.125
780.316	117.575
780.444	118.958
780.572	116.233
780.700	118.508
780.828	116.100
780.956	117.825
781.085	116.933
781.213	117.200
781.341	117.775
781.469	118.050
781.597	117.183
781.725	116.758
781.853	116.858
781.981	117.458
782.110	117.883
782.238	117.075
782.366	116.175
782.494	116.533
782.622	117.983
782.750	116.850
782.878	116.517
783.006	116.150
783.135	116.033
783.263	115.658
783.391	117.817
783.519	116.892
783.647	116.617
783.775	115.467
783.903	116.758
784.031	115.267
784.160	114.958
784.288	116.133
784.416	114.992
784.544	113.675
784.672	115.050
784.800	114.383
784.928	115.775
785.056	114.650
785.185	115.175
785.313	114.300
785.441	114.767
785.569	114.442
785.697	114.417
785.825	113.367
785.953	113.100
786.081	113.542
786.210	113.492
786.338	113.858
786.466	114.000
786.594	114.292
786.722	114.250
786.850	114.758
786.978	112.542
787.106	113.375
787.235	113.717
787.363	113.375
787.491	114.225
787.619	113.867
787.747	114.017
787.875	114.300
788.003	113.242
788.131	112.925
788.260	113.258
788.388	112.692
788.516	111.850
788.644	112.967
788.772	112.492
788.900	113.592
789.028	112.017
789.156	114.175
789.285	113.175
789.413	111.750
789.541	113.233
789.669	112.183
789.797	112.525
789.925	112.900
790.053	114.725
790.181	112.617
790.310	112.083
790.438	113.008
790.566	112.217
790.694	111.892
790.822	111.500
790.950	113.000
791.078	112.375
791.206	112.675
791.335	111.650
791.463	111.000
791.591	111.675
791.719	113.275
791.847	110.825
791.975	110.750
792.103	111.642
792.231	112.100
792.360	111.117
792.488	110.400
792.616	112.550
792.744	111.558
792.872	110.858
793.000	112.008
793.128	112.050
793.256	111.225
793.385	110.975
793.513	113.358
793.641	112.142
793.769	110.967
793.897	111.133
794.025	111.517
794.153	110.933
794.281	111.233
794.410	110.317
794.538	111.183
794.666	111.050
794.794	110.133
794.922	111.217
795.050	111.933
795.178	111.917
795.306	109.017
795.435	109.942
795.563	111.000
795.691	110.083
795.819	110.475
795.947	110.150
796.075	110.283
796.203	111.133
796.331	109.333
796.460	110.033
796.588	109.783
796.716	111.517
796.844	110.233
796.972	110.625
797.100	109.875
797.228	110.925
797.356	111.033
797.485	109.900
797.613	109.683
797.741	109.883
797.869	109.542
797.997	110.067
798.125	109.058
798.253	109.708
798.381	109.142
798.510	109.342
798.638	108.450
798.766	108.950
798.894	107.817
799.022	109.083
799.150	108.750
799.278	108.817
799.406	110.108
799.535	110.492
799.663	110.200
799.791	108.550
799.919	109.083
800.047	109.975
800.175	109.292
800.303	107.967
800.431	108.567
800.560	109.500
800.688	109.133
800.816	109.500
800.944	108.950
801.072	109.642
801.200	110.775
801.328	108.992
801.456	109.067
801.585	109.625
801.713	108.700
801.841	109.417
801.969	108.408
802.097	109.242
802.225	108.667
802.353	109.500
802.481	108.908
802.610	108.875
802.738	108.117
802.866	108.025
802.994	108.433
803.122	107.800
803.250	109.283
803.378	108.792
803.506	109.550
803.635	108.933
803.763	108.008
803.891	109.517
804.019	108.892
804.147	108.658
804.275	108.625
804.403	108.142
804.531	108.033
804.660	108.250
804.788	107.592
804.916	107.425
805.044	108.467
805.172	108.808
805.300	106.925
805.428	108.358
805.556	108.275
805.685	107.917
805.813	108.392
805.941	108.058
806.069	108.908
806.197	108.350
806.325	107.475
806.453	108.317
806.581	107.375
806.710	108.025
806.838	106.367
806.966	107.750
807.094	107.600
807.222	107.233
807.350	108.025
807.478	107.483
807.606	107.083
807.735	106.733
807.863	107.717
807.991	106.808
808.119	107.233
808.247	107.883
808.375	106.858
808.503	106.883
808.631	107.400
808.760	107.842
808.888	106.217
809.016	106.967
809.144	108.292
809.272	107.675
809.400	107.825
809.528	107.342
809.656	106.675
809.785	106.333
809.913	108.125
810.041	107.033
810.169	106.792
810.297	107.025
810.425	107.450
810.553	106.100
810.681	108.167
810.810	107.217
810.938	107.875
811.066	106.492
811.194	106.342
811.322	106.475
811.450	107.458
811.578	107.658
811.706	106.992
811.835	106.567
811.963	106.542
812.091	106.942
812.219	107.292
812.347	106.375
812.475	106.875
812.603	107.075
812.731	106.225
812.860	107.200
812.988	107.858
813.116	106.225
813.244	106.742
813.372	106.767
813.500	106.858
813.628	107.958
813.756	105.275
813.885	106.658
814.013	106.258
814.141	107.817
814.269	106.100
814.397	106.667
814.525	105.883
814.653	106.558
814.781	106.825
814.910	105.983
815.038	106.675
815.166	107.150
815.294	105.817
815.422	107.100
815.550	105.933
815.678	106.250
815.806	106.950
815.935	105.708
816.063	105.742
816.191	105.558
816.319	106.808
816.447	106.442
816.575	106.608
816.703	106.850
816.831	106.908
816.960	107.008
817.088	106.133
817.216	105.633
817.344	106.617
817.472	106.900
817.600	106.367
817.728	105.192
817.856	106.417
817.985	105.208
818.113	106.692
818.241	106.900
818.369	105.900
818.497	107.075
818.625	106.108
818.753	105.583
818.881	106.767
819.010	105.892
819.138	104.917
819.266	106.025
819.394	105.742
819.522	104.758
819.650	106.492
819.778	105.908
819.906	106.125
820.035	105.325
820.163	105.508
820.291	105.042
820.419	105.125
820.547	106.367
820.675	104.358
820.803	105.908
820.931	106.442
821.060	103.917
821.188	105.733
821.316	104.933
821.444	105.892
821.572	106.158
821.700	105.575
821.828	106.283
821.956	105.592
822.085	104.608
822.213	106.175
822.341	105.683
822.469	105.625
822.597	104.725
822.725	105.625
822.853	105.150
822.981	105.750
823.110	106.150
823.238	103.858
823.366	105.700
823.494	104.375
823.622	104.450
823.750	105.383
823.878	104.117
824.006	105.767
824.135	105.983
824.263	105.625
824.391	104.183
824.519	106.600
824.647	105.775
824.775	106.167
824.903	105.850
825.031	106.708
825.160	106.625
825.288	105.900
825.416	106.200
825.544	105.367
825.672	106.025
825.800	105.825
825.928	105.550
826.056	106.150
826.185	105.433
826.313	105.975
826.441	105.425
826.569	104.950
826.697	106.000
826.825	104.650
826.953	106.108
827.081	104.683
827.210	104.892
827.338	103.917
827.466	103.700
827.594	104.842
827.722	105.850
827.850	105.283
827.978	104.617
828.106	104.808
828.235	106.617
828.363	105.225
828.491	105.575
828.619	104.933
828.747	104.808
828.875	104.967
829.003	105.675
829.131	106.483
829.260	106.117
829.388	104.608
829.516	105.667
829.644	105.467
829.772	105.833
829.900	104.775
830.028	104.858
830.156	105.417
830.285	105.642
830.413	105.375
830.541	104.458
830.669	105.150
830.797	104.267
830.925	104.475
831.053	104.833
831.181	104.725
831.310	105.367
831.438	104.450
831.566	105.183
831.694	104.692
831.822	103.717
831.950	104.800
832.078	105.783
832.206	104.667
832.335	104.117
832.463	105.450
832.591	104.958
832.719	104.275
832.847	104.858
832.975	104.100
833.103	104.642
833.231	104.550
833.360	104.842
833.488	104.375
833.616	104.667
833.744	104.017
833.872	105.167
834.000	105.883
834.128	105.017
834.256	104.650
834.385	103.633
834.513	105.633
834.641	103.283
834.769	103.717
834.897	104.908
835.025	104.100
835.153	103.750
835.281	104.408
835.410	104.708
835.538	104.075
835.666	103.933
835.794	104.042
835.922	104.233
836.050	104.817
836.178	104.550
836.306	104.875
836.435	104.000
836.563	104.542
836.691	105.058
836.819	105.942
836.947	104.692
837.075	104.592
837.203	104.292
837.331	104.958
837.460	104.433
837.588	103.983
837.716	105.425
837.844	104.958
837.972	104.042
838.100	104.325
838.228	103.908
838.356	103.550
838.485	102.900
838.613	103.367
838.741	104.408
838.869	103.850
838.997	104.458
839.125	103.083
839.253	103.367
839.381	104.133
839.510	103.858
839.638	104.083
839.766	103.542
839.894	104.450
840.022	104.800
840.150	104.667
840.278	103.367
840.406	104.417
840.535	104.358
840.663	103.342
840.791	103.600
840.919	103.767
841.047	103.633
841.175	104.258
841.303	103.942
841.431	104.600
841.560	104.000
841.688	104.025
841.816	103.808
841.944	104.225
842.072	104.775
842.200	103.758
842.328	104.400
842.456	103.425
842.585	104.350
842.713	104.158
842.841	103.992
842.969	104.058
843.097	104.242
843.225	103.867
843.353	103.892
843.481	103.758
843.610	104.017
843.738	103.217
843.866	103.292
