90-130-unpol_at_679.99nm_cut_at_1253.50Y_01.dat
24.01.2024
13:33:21
cut middle at Y: 1253.50
top cursor: 1317 down cursor: 1190 mean of: 127 lines , 2560 datapoints
wavelength(nm)	intensity[arb. units]
515.994	826.512
516.122	780.787
516.250	768.457
516.378	761.969
516.506	752.441
516.635	762.898
516.763	765.732
516.891	768.512
517.019	770.772
517.147	772.181
517.275	774.638
517.403	777.118
517.531	774.205
517.660	773.039
517.788	773.685
517.916	779.402
518.044	778.732
518.172	777.835
518.300	783.063
518.428	777.213
518.556	783.000
518.685	782.197
518.813	782.087
518.941	792.181
519.069	787.646
519.197	785.701
519.325	797.236
519.453	788.685
519.581	805.039
519.710	791.614
519.838	801.118
519.966	797.583
520.094	801.268
520.222	801.528
520.350	809.370
520.478	813.520
520.606	814.559
520.735	812.921
520.863	811.638
520.991	821.535
521.119	819.827
521.247	824.205
521.375	822.811
521.503	830.638
521.631	831.039
521.760	842.945
521.888	835.709
522.016	849.701
522.144	834.386
522.272	837.898
522.400	845.504
522.528	852.827
522.656	853.402
522.785	855.071
522.913	862.835
523.041	854.370
523.169	854.244
523.297	849.441
523.425	859.197
523.553	864.717
523.681	859.283
523.810	867.118
523.938	876.126
524.066	863.236
524.194	871.606
524.322	861.646
524.450	863.693
524.578	861.551
524.706	871.976
524.835	871.504
524.963	877.898
525.091	863.614
525.219	870.252
525.347	872.709
525.475	873.882
525.603	878.992
525.731	868.409
525.860	883.189
525.988	868.850
526.116	869.102
526.244	880.016
526.372	871.882
526.500	878.795
526.628	887.071
526.756	874.394
526.885	878.803
527.013	879.283
527.141	880.898
527.269	877.394
527.397	881.394
527.525	878.000
527.653	876.472
527.781	881.598
527.910	896.362
528.038	891.157
528.166	895.598
528.294	886.984
528.422	894.205
528.550	901.346
528.678	897.614
528.806	902.575
528.935	906.945
529.063	904.126
529.191	900.150
529.319	908.323
529.447	908.402
529.575	910.724
529.703	906.701
529.831	919.606
529.960	914.488
530.088	915.055
530.216	922.378
530.344	919.031
530.472	923.874
530.600	933.496
530.728	924.583
530.856	928.150
530.985	930.543
531.113	919.921
531.241	927.079
531.369	942.669
531.497	929.000
531.625	932.535
531.753	929.409
531.881	932.614
532.010	939.299
532.138	933.299
532.266	926.039
532.394	929.835
532.522	922.441
532.650	929.283
532.778	942.047
532.906	929.890
533.035	936.772
533.163	924.118
533.291	930.307
533.419	920.709
533.547	933.969
533.675	930.567
533.803	926.559
533.931	930.701
534.060	927.008
534.188	928.969
534.316	934.811
534.444	935.173
534.572	926.803
534.700	934.827
534.828	930.378
534.956	934.512
535.085	942.047
535.213	946.748
535.341	948.362
535.469	945.283
535.597	950.134
535.725	952.764
535.853	957.717
535.981	949.937
536.110	967.780
536.238	961.457
536.366	973.835
536.494	958.606
536.622	967.890
536.750	967.764
536.878	978.150
537.006	981.118
537.135	981.795
537.263	985.929
537.391	983.583
537.519	986.386
537.647	994.921
537.775	992.654
537.903	998.551
538.031	988.701
538.160	997.953
538.288	1001.882
538.416	1008.638
538.544	1005.457
538.672	1003.630
538.800	1007.850
538.928	1010.079
539.056	1019.543
539.185	1014.575
539.313	1007.559
539.441	1019.071
539.569	1014.543
539.697	1023.874
539.825	1032.961
539.953	1022.677
540.081	1017.591
540.210	1029.913
540.338	1016.039
540.466	1026.961
540.594	1024.039
540.722	1011.409
540.850	1022.315
540.978	1019.709
541.106	1026.409
541.235	1037.441
541.363	1026.984
541.491	1029.575
541.619	1024.898
541.747	1025.157
541.875	1025.669
542.003	1038.480
542.131	1036.795
542.260	1034.118
542.388	1029.118
542.516	1039.071
542.644	1038.323
542.772	1038.858
542.900	1037.858
543.028	1037.551
543.156	1047.827
543.285	1041.118
543.413	1033.047
543.541	1041.213
543.669	1054.591
543.797	1041.937
543.925	1045.622
544.053	1050.929
544.181	1056.370
544.310	1040.189
544.438	1036.181
544.566	1054.094
544.694	1046.583
544.822	1062.945
544.950	1053.126
545.078	1048.134
545.206	1049.591
545.335	1068.512
545.463	1050.228
545.591	1050.315
545.719	1054.898
545.847	1057.693
545.975	1059.504
546.103	1058.795
546.231	1070.213
546.360	1066.740
546.488	1062.063
546.616	1061.472
546.744	1067.929
546.872	1058.937
547.000	1070.780
547.128	1070.409
547.256	1070.583
547.385	1071.787
547.513	1068.346
547.641	1072.472
547.769	1079.787
547.897	1074.472
548.025	1075.984
548.153	1074.409
548.281	1067.339
548.410	1074.378
548.538	1072.961
548.666	1075.142
548.794	1074.386
548.922	1074.921
549.050	1086.504
549.178	1084.787
549.306	1085.795
549.435	1084.150
549.563	1092.087
549.691	1077.724
549.819	1095.717
549.947	1099.339
550.075	1088.795
550.203	1087.921
550.331	1077.890
550.460	1087.362
550.588	1088.654
550.716	1098.929
550.844	1084.693
550.972	1093.780
551.100	1092.386
551.228	1087.795
551.356	1080.890
551.485	1090.811
551.613	1082.118
551.741	1079.441
551.869	1074.685
551.997	1071.441
552.125	1079.000
552.253	1081.142
552.381	1073.236
552.510	1075.929
552.638	1069.496
552.766	1082.913
552.894	1060.071
553.022	1066.780
553.150	1073.260
553.278	1067.268
553.406	1062.906
553.535	1063.953
553.663	1068.425
553.791	1067.528
553.919	1066.094
554.047	1067.890
554.175	1063.795
554.303	1060.472
554.431	1057.299
554.560	1064.929
554.688	1070.787
554.816	1066.378
554.944	1069.118
555.072	1075.220
555.200	1070.260
555.328	1062.654
555.456	1077.929
555.585	1068.323
555.713	1066.087
555.841	1070.638
555.969	1068.583
556.097	1079.339
556.225	1071.543
556.353	1085.008
556.481	1074.008
556.610	1086.252
556.738	1088.913
556.866	1098.150
556.994	1082.031
557.122	1079.496
557.250	1096.858
557.378	1096.535
557.506	1090.646
557.635	1098.055
557.763	1093.661
557.891	1109.929
558.019	1096.740
558.147	1102.984
558.275	1097.591
558.403	1110.039
558.531	1105.512
558.660	1112.630
558.788	1106.134
558.916	1109.992
559.044	1096.630
559.172	1107.315
559.300	1123.528
559.428	1104.984
559.556	1125.441
559.685	1114.709
559.813	1111.118
559.941	1117.000
560.069	1117.756
560.197	1115.811
560.325	1123.165
560.453	1111.480
560.581	1120.969
560.710	1117.748
560.838	1118.504
560.966	1120.354
561.094	1124.724
561.222	1117.016
561.350	1111.945
561.478	1115.205
561.606	1122.630
561.735	1111.984
561.863	1115.811
561.991	1115.213
562.119	1116.921
562.247	1115.512
562.375	1111.984
562.503	1104.520
562.631	1112.811
562.760	1111.535
562.888	1114.449
563.016	1123.630
563.144	1116.472
563.272	1108.472
563.400	1110.370
563.528	1106.504
563.656	1115.000
563.785	1108.016
563.913	1117.961
564.041	1107.291
564.169	1111.512
564.297	1114.197
564.425	1109.299
564.553	1124.598
564.681	1119.299
564.810	1117.961
564.938	1108.701
565.066	1116.701
565.194	1115.874
565.322	1115.913
565.450	1126.921
565.578	1124.472
565.706	1118.622
565.835	1125.457
565.963	1121.016
566.091	1120.528
566.219	1134.425
566.347	1123.425
566.475	1125.283
566.603	1131.638
566.731	1135.024
566.860	1136.567
566.988	1134.795
567.116	1137.386
567.244	1142.969
567.372	1145.969
567.500	1144.236
567.628	1148.535
567.756	1143.268
567.885	1149.669
568.013	1155.142
568.141	1156.583
568.269	1152.417
568.397	1158.000
568.525	1156.614
568.653	1170.268
568.781	1165.331
568.910	1176.685
569.038	1171.614
569.166	1169.598
569.294	1167.945
569.422	1175.228
569.550	1167.236
569.678	1181.268
569.806	1175.165
569.935	1184.528
570.063	1192.150
570.191	1191.575
570.319	1188.598
570.447	1188.039
570.575	1189.087
570.703	1197.024
570.831	1200.858
570.960	1199.346
571.088	1204.323
571.216	1209.598
571.344	1206.402
571.472	1205.890
571.600	1218.835
571.728	1208.591
571.856	1206.457
571.985	1215.961
572.113	1213.472
572.241	1217.354
572.369	1223.803
572.497	1216.488
572.625	1233.307
572.753	1224.756
572.881	1237.071
573.010	1225.157
573.138	1236.709
573.266	1240.858
573.394	1239.181
573.522	1232.795
573.650	1240.835
573.778	1233.543
573.906	1236.260
574.035	1234.433
574.163	1237.984
574.291	1238.638
574.419	1242.882
574.547	1253.874
574.675	1251.795
574.803	1246.827
574.931	1237.709
575.060	1256.874
575.188	1247.819
575.316	1250.441
575.444	1248.677
575.572	1255.213
575.700	1247.165
575.828	1258.984
575.956	1260.535
576.085	1256.047
576.213	1259.063
576.341	1242.535
576.469	1250.748
576.597	1242.654
576.725	1252.811
576.853	1245.417
576.981	1250.890
577.110	1253.835
577.238	1261.055
577.366	1244.890
577.494	1241.402
577.622	1239.843
577.750	1249.157
577.878	1246.630
578.006	1257.354
578.135	1256.717
578.263	1241.630
578.391	1262.189
578.519	1255.496
578.647	1255.504
578.775	1250.142
578.903	1244.937
579.031	1258.031
579.160	1248.213
579.288	1245.890
579.416	1247.535
579.544	1259.551
579.672	1259.929
579.800	1258.898
579.928	1258.417
580.056	1251.630
580.185	1246.512
580.313	1256.614
580.441	1254.953
580.569	1245.740
580.697	1248.937
580.825	1262.047
580.953	1266.354
581.081	1265.370
581.210	1273.024
581.338	1275.000
581.466	1272.961
581.594	1277.992
581.722	1267.953
581.850	1263.882
581.978	1272.937
582.106	1283.693
582.235	1292.236
582.363	1274.969
582.491	1286.543
582.619	1286.378
582.747	1293.425
582.875	1298.425
583.003	1300.693
583.131	1300.661
583.260	1302.031
583.388	1310.622
583.516	1318.323
583.644	1314.402
583.772	1320.906
583.900	1328.866
584.028	1337.945
584.156	1328.197
584.285	1338.898
584.413	1337.362
584.541	1342.961
584.669	1342.504
584.797	1345.677
584.925	1349.504
585.053	1361.787
585.181	1354.307
585.310	1360.535
585.438	1357.528
585.566	1360.591
585.694	1374.165
585.822	1386.717
585.950	1378.087
586.078	1380.157
586.206	1389.441
586.335	1395.811
586.463	1389.236
586.591	1392.913
586.719	1391.953
586.847	1388.291
586.975	1401.047
587.103	1404.520
587.231	1398.008
587.360	1408.205
587.488	1408.937
587.616	1415.598
587.744	1419.543
587.872	1405.827
588.000	1410.819
588.128	1426.583
588.256	1420.346
588.385	1406.315
588.513	1420.457
588.641	1426.732
588.769	1436.433
588.897	1422.772
589.025	1421.134
589.153	1432.142
589.281	1422.205
589.410	1419.205
589.538	1429.882
589.666	1434.016
589.794	1431.520
589.922	1445.299
590.050	1453.843
590.178	1415.803
590.306	1437.228
590.435	1436.567
590.563	1424.858
590.691	1438.717
590.819	1423.173
590.947	1448.126
591.075	1433.630
591.203	1430.504
591.331	1450.008
591.460	1456.591
591.588	1445.677
591.716	1449.961
591.844	1455.094
591.972	1462.291
592.100	1452.402
592.228	1452.244
592.356	1454.520
592.485	1445.717
592.613	1455.709
592.741	1462.551
592.869	1459.606
592.997	1470.598
593.125	1478.142
593.253	1477.630
593.381	1470.331
593.510	1474.472
593.638	1472.370
593.766	1475.173
593.894	1474.701
594.022	1481.039
594.150	1479.291
594.278	1496.150
594.406	1488.071
594.535	1487.811
594.663	1501.126
594.791	1499.945
594.919	1488.268
595.047	1497.677
595.175	1510.142
595.303	1493.260
595.431	1502.496
595.560	1526.858
595.688	1505.031
595.816	1510.291
595.944	1517.543
596.072	1538.433
596.200	1527.606
596.328	1519.795
596.456	1531.071
596.585	1530.354
596.713	1551.984
596.841	1533.780
596.969	1533.953
597.097	1548.630
597.225	1553.535
597.353	1559.685
597.481	1550.228
597.610	1553.591
597.738	1567.709
597.866	1551.898
597.994	1568.677
598.122	1571.732
598.250	1573.024
598.378	1565.874
598.506	1577.165
598.635	1571.339
598.763	1580.150
598.891	1581.094
599.019	1584.677
599.147	1575.898
599.275	1586.150
599.403	1583.976
599.531	1580.449
599.660	1596.567
599.788	1600.331
599.916	1588.165
600.044	1598.874
600.172	1606.976
600.300	1595.244
600.428	1599.654
600.556	1610.346
600.685	1617.409
600.813	1608.669
600.941	1627.362
601.069	1627.772
601.197	1636.488
601.325	1629.244
601.453	1629.882
601.581	1630.795
601.710	1641.346
601.838	1652.134
601.966	1642.236
602.094	1641.346
602.222	1642.063
602.350	1649.575
602.478	1655.543
602.606	1657.433
602.735	1655.961
602.863	1681.071
602.991	1687.370
603.119	1678.118
603.247	1680.661
603.375	1680.685
603.503	1686.307
603.631	1700.276
603.760	1701.063
603.888	1697.331
604.016	1707.882
604.144	1698.929
604.272	1714.551
604.400	1709.394
604.528	1707.063
604.656	1718.890
604.785	1730.110
604.913	1735.157
605.041	1736.449
605.169	1745.756
605.297	1736.417
605.425	1739.630
605.553	1757.583
605.681	1748.543
605.810	1758.504
605.938	1756.370
606.066	1757.354
606.194	1778.024
606.322	1764.110
606.450	1782.315
606.578	1762.197
606.706	1768.134
606.835	1776.858
606.963	1786.339
607.091	1793.866
607.219	1771.874
607.347	1767.528
607.475	1796.898
607.603	1788.787
607.731	1788.583
607.860	1780.197
607.988	1788.260
608.116	1785.283
608.244	1790.866
608.372	1788.016
608.500	1793.457
608.628	1790.362
608.756	1794.551
608.885	1804.685
609.013	1790.677
609.141	1792.559
609.269	1794.583
609.397	1792.638
609.525	1793.441
609.653	1800.016
609.781	1794.165
609.910	1793.740
610.038	1801.724
610.166	1801.260
610.294	1800.583
610.422	1817.661
610.550	1803.276
610.678	1802.677
610.806	1806.205
610.935	1812.339
611.063	1803.866
611.191	1803.055
611.319	1815.787
611.447	1805.291
611.575	1793.661
611.703	1777.819
611.831	1801.717
611.960	1796.717
612.088	1799.528
612.216	1805.465
612.344	1811.362
612.472	1796.567
612.600	1813.732
612.728	1795.008
612.856	1817.402
612.985	1796.677
613.113	1813.772
613.241	1806.685
613.369	1810.394
613.497	1810.024
613.625	1807.748
613.753	1804.370
613.881	1818.583
614.010	1805.811
614.138	1811.614
614.266	1799.835
614.394	1807.504
614.522	1813.780
614.650	1828.409
614.778	1818.811
614.906	1837.984
615.035	1828.299
615.163	1814.370
615.291	1833.685
615.419	1823.055
615.547	1818.890
615.675	1844.260
615.803	1834.047
615.931	1850.134
616.060	1842.386
616.188	1839.953
616.316	1835.252
616.444	1848.260
616.572	1856.559
616.700	1854.866
616.828	1863.520
616.956	1864.213
617.085	1876.811
617.213	1866.898
617.341	1861.315
617.469	1883.362
617.597	1879.291
617.725	1873.606
617.853	1865.071
617.981	1870.669
618.110	1893.559
618.238	1884.929
618.366	1902.244
618.494	1897.567
618.622	1898.787
618.750	1895.016
618.878	1893.961
619.006	1905.669
619.135	1925.016
619.263	1908.307
619.391	1906.480
619.519	1906.819
619.647	1934.976
619.775	1930.693
619.903	1938.402
620.031	1949.244
620.160	1938.913
620.288	1934.685
620.416	1961.559
620.544	1947.276
620.672	1954.102
620.800	1963.803
620.928	1955.142
621.056	1978.165
621.185	1975.000
621.313	1965.803
621.441	1987.764
621.569	2010.134
621.697	1990.724
621.825	2002.291
621.953	2000.205
622.081	2003.354
622.210	1988.173
622.338	2003.252
622.466	1998.606
622.594	2012.740
622.722	2017.008
622.850	2034.102
622.978	2024.756
623.106	2036.921
623.235	2031.094
623.363	2046.000
623.491	2042.331
623.619	2032.409
623.747	2038.598
623.875	2045.661
624.003	2031.181
624.131	2045.409
624.260	2041.835
624.388	2060.858
624.516	2064.583
624.644	2046.937
624.772	2057.858
624.900	2057.205
625.028	2046.118
625.156	2073.197
625.285	2068.205
625.413	2067.386
625.541	2067.811
625.669	2072.055
625.797	2069.024
625.925	2074.465
626.053	2068.346
626.181	2079.173
626.310	2078.677
626.438	2063.543
626.566	2054.417
626.694	2067.575
626.822	2068.945
626.950	2086.181
627.078	2080.756
627.206	2080.205
627.335	2095.559
627.463	2080.756
627.591	2094.551
627.719	2092.047
627.847	2093.063
627.975	2082.134
628.103	2082.646
628.231	2096.165
628.360	2088.173
628.488	2089.024
628.616	2092.362
628.744	2084.638
628.872	2087.764
629.000	2091.693
629.128	2085.953
629.256	2095.669
629.385	2099.094
629.513	2076.307
629.641	2099.142
629.769	2111.094
629.897	2098.142
630.025	2096.504
630.153	2120.646
630.281	2105.850
630.410	2099.496
630.538	2115.213
630.666	2111.299
630.794	2109.898
630.922	2099.551
631.050	2083.291
631.178	2098.031
631.306	2115.480
631.435	2110.268
631.563	2121.268
631.691	2124.780
631.819	2133.591
631.947	2129.512
632.075	2115.945
632.203	2132.299
632.331	2130.906
632.460	2106.591
632.588	2122.031
632.716	2142.079
632.844	2120.220
632.972	2109.000
633.100	2128.740
633.228	2139.969
633.356	2115.961
633.485	2139.315
633.613	2134.181
633.741	2130.024
633.869	2139.142
633.997	2124.150
634.125	2127.472
634.253	2122.134
634.381	2122.260
634.510	2135.827
634.638	2119.276
634.766	2135.425
634.894	2131.520
635.022	2110.008
635.150	2114.307
635.278	2145.024
635.406	2109.252
635.535	2121.315
635.663	2129.173
635.791	2106.811
635.919	2137.811
636.047	2123.094
636.175	2109.354
636.303	2136.339
636.431	2128.213
636.560	2148.283
636.688	2134.000
636.816	2117.465
636.944	2122.197
637.072	2130.094
637.200	2128.787
637.328	2121.409
637.456	2116.118
637.585	2128.362
637.713	2145.913
637.841	2125.764
637.969	2120.913
638.097	2121.756
638.225	2129.882
638.353	2138.732
638.481	2135.087
638.610	2146.047
638.738	2146.323
638.866	2114.425
638.994	2131.866
639.122	2127.472
639.250	2139.244
639.378	2142.472
639.506	2130.969
639.635	2143.055
639.763	2127.346
639.891	2145.386
640.019	2150.063
640.147	2152.890
640.275	2150.969
640.403	2133.677
640.531	2141.646
640.660	2148.047
640.788	2172.921
640.916	2158.598
641.044	2164.000
641.172	2157.465
641.300	2161.228
641.428	2166.843
641.556	2169.921
641.685	2162.512
641.813	2154.472
641.941	2177.701
642.069	2174.134
642.197	2177.976
642.325	2172.016
642.453	2182.047
642.581	2195.740
642.710	2158.890
642.838	2183.535
642.966	2185.354
643.094	2173.969
643.222	2182.496
643.350	2180.992
643.478	2192.630
643.606	2195.843
643.735	2185.205
643.863	2184.370
643.991	2210.858
644.119	2204.976
644.247	2194.150
644.375	2198.276
644.503	2208.906
644.631	2216.220
644.760	2217.803
644.888	2208.378
645.016	2211.024
645.144	2210.441
645.272	2198.913
645.400	2212.961
645.528	2215.236
645.656	2212.961
645.785	2220.055
645.913	2231.756
646.041	2222.646
646.169	2204.512
646.297	2203.465
646.425	2211.583
646.553	2198.220
646.681	2203.252
646.810	2211.898
646.938	2207.858
647.066	2213.394
647.194	2223.701
647.322	2209.016
647.450	2205.189
647.578	2223.394
647.706	2209.142
647.835	2212.898
647.963	2210.134
648.091	2213.110
648.219	2207.283
648.347	2211.189
648.475	2207.110
648.603	2209.181
648.731	2203.559
648.860	2204.913
648.988	2195.394
649.116	2193.748
649.244	2172.220
649.372	2189.173
649.500	2175.535
649.628	2194.031
649.756	2177.102
649.885	2161.189
650.013	2170.102
650.141	2154.126
650.269	2146.504
650.397	2167.150
650.525	2145.835
650.653	2165.260
650.781	2154.992
650.910	2139.575
651.038	2123.276
651.166	2135.677
651.294	2137.339
651.422	2125.433
651.550	2105.890
651.678	2127.677
651.806	2111.921
651.935	2110.394
652.063	2099.118
652.191	2106.071
652.319	2093.244
652.447	2082.772
652.575	2079.055
652.703	2085.709
652.831	2095.945
652.960	2074.488
653.088	2076.890
653.216	2066.583
653.344	2067.976
653.472	2066.709
653.600	2066.102
653.728	2064.701
653.856	2042.362
653.985	2065.362
654.113	2057.606
654.241	2058.260
654.369	2050.417
654.497	2073.583
654.625	2051.850
654.753	2044.906
654.881	2059.488
655.010	2061.835
655.138	2039.008
655.266	2041.276
655.394	2026.283
655.522	2041.535
655.650	2019.638
655.778	2030.543
655.906	2032.465
656.035	2018.220
656.163	2015.984
656.291	2020.173
656.419	2019.472
656.547	2012.575
656.675	2000.378
656.803	2008.488
656.931	2002.110
657.060	2000.732
657.188	2011.567
657.316	2003.661
657.444	2004.094
657.572	2002.260
657.700	2001.937
657.828	2010.772
657.956	2008.787
658.085	2041.543
658.213	2002.591
658.341	2013.331
658.469	2010.591
658.597	2008.039
658.725	2005.181
658.853	1982.323
658.981	1996.906
659.110	1997.055
659.238	2006.016
659.366	1996.528
659.494	1982.457
659.622	1985.039
659.750	1991.677
659.878	1974.071
660.006	1978.110
660.135	1979.575
660.263	1983.268
660.391	1978.331
660.519	1982.252
660.647	1964.780
660.775	1967.134
660.903	1960.244
661.031	1956.890
661.160	1971.386
661.288	1973.512
661.416	1973.016
661.544	1960.087
661.672	1961.567
661.800	1967.748
661.928	1956.055
662.056	1957.000
662.185	1945.134
662.313	1953.409
662.441	1969.299
662.569	1954.417
662.697	1939.370
662.825	1935.480
662.953	1939.126
663.081	1936.150
663.210	1945.630
663.338	1947.283
663.466	1941.220
663.594	1926.441
663.722	1922.992
663.850	1935.063
663.978	1909.457
664.106	1944.543
664.235	1929.732
664.363	1928.236
664.491	1920.008
664.619	1932.409
664.747	1930.244
664.875	1915.457
665.003	1919.472
665.131	1910.567
665.260	1927.110
665.388	1900.323
665.516	1896.701
665.644	1905.598
665.772	1911.425
665.900	1905.142
666.028	1906.843
666.156	1892.717
666.285	1891.929
666.413	1909.134
666.541	1891.780
666.669	1885.260
666.797	1882.165
666.925	1883.764
667.053	1904.630
667.181	1874.622
667.310	1878.898
667.438	1870.228
667.566	1870.811
667.694	1882.638
667.822	1880.748
667.950	1866.220
668.078	1851.417
668.206	1862.228
668.335	1867.512
668.463	1868.346
668.591	1861.543
668.719	1860.055
668.847	1846.441
668.975	1845.961
669.103	1862.024
669.231	1858.055
669.360	1850.433
669.488	1849.638
669.616	1833.260
669.744	1849.457
669.872	1835.087
670.000	1846.677
670.128	1821.402
670.256	1829.992
670.385	1834.457
670.513	1832.472
670.641	1817.976
670.769	1824.543
670.897	1817.417
671.025	1822.551
671.153	1826.071
671.281	1830.409
671.410	1831.496
671.538	1810.165
671.666	1814.118
671.794	1820.268
671.922	1806.512
672.050	1805.197
672.178	1800.228
672.306	1783.961
672.435	1788.409
672.563	1801.661
672.691	1802.850
672.819	1800.819
672.947	1778.929
673.075	1772.890
673.203	1787.094
673.331	1768.071
673.460	1766.945
673.588	1772.016
673.716	1777.094
673.844	1758.732
673.972	1766.024
674.100	1760.764
674.228	1753.835
674.356	1751.543
674.485	1750.079
674.613	1731.441
674.741	1742.780
674.869	1733.669
674.997	1740.693
675.125	1735.118
675.253	1719.331
675.381	1718.984
675.510	1706.945
675.638	1710.819
675.766	1711.646
675.894	1704.118
676.022	1686.315
676.150	1685.693
676.278	1705.142
676.406	1691.299
676.535	1690.055
676.663	1686.961
676.791	1664.370
676.919	1672.551
677.047	1678.772
677.175	1655.543
677.303	1672.441
677.431	1658.630
677.560	1655.811
677.688	1649.370
677.816	1642.559
677.944	1632.740
678.072	1638.701
678.200	1635.197
678.328	1623.638
678.456	1618.913
678.585	1613.850
678.713	1611.323
678.841	1601.709
678.969	1600.614
679.097	1619.654
679.225	1600.961
679.353	1601.402
679.481	1589.394
679.610	1599.701
679.738	1581.402
679.866	1589.969
679.994	1586.220
680.122	1577.228
680.250	1561.071
680.378	1578.669
680.506	1557.039
680.635	1554.669
680.763	1553.039
680.891	1555.953
681.019	1563.165
681.147	1542.787
681.275	1532.472
681.403	1528.047
681.531	1535.441
681.660	1525.331
681.788	1523.685
681.916	1514.472
682.044	1525.189
682.172	1506.307
682.300	1495.606
682.428	1497.205
682.556	1509.843
682.685	1508.008
682.813	1503.370
682.941	1500.724
683.069	1487.543
683.197	1498.622
683.325	1488.205
683.453	1476.291
683.581	1480.173
683.710	1467.094
683.838	1485.370
683.966	1472.386
684.094	1481.244
684.222	1472.024
684.350	1456.339
684.478	1467.504
684.606	1466.102
684.735	1456.417
684.863	1452.480
684.991	1452.984
685.119	1447.701
685.247	1442.898
685.375	1428.362
685.503	1436.835
685.631	1443.291
685.760	1434.929
685.888	1430.866
686.016	1434.354
686.144	1422.575
686.272	1414.622
686.400	1421.583
686.528	1416.213
686.656	1420.685
686.785	1405.102
686.913	1411.787
687.041	1398.819
687.169	1410.913
687.297	1409.748
687.425	1396.583
687.553	1387.811
687.681	1394.984
687.810	1394.472
687.938	1384.567
688.066	1391.197
688.194	1391.614
688.322	1384.173
688.450	1369.039
688.578	1376.638
688.706	1380.992
688.835	1381.055
688.963	1377.386
689.091	1385.299
689.219	1363.197
689.347	1360.898
689.475	1367.709
689.603	1358.480
689.731	1366.252
689.860	1360.024
689.988	1373.575
690.116	1356.299
690.244	1348.071
690.372	1353.630
690.500	1349.142
690.628	1345.614
690.756	1344.000
690.885	1347.669
691.013	1340.354
691.141	1336.701
691.269	1340.795
691.397	1342.244
691.525	1331.598
691.653	1342.520
691.781	1326.339
691.910	1331.827
692.038	1320.488
692.166	1318.803
692.294	1312.047
692.422	1317.906
692.550	1320.276
692.678	1310.189
692.806	1313.772
692.935	1304.102
693.063	1297.984
693.191	1301.339
693.319	1294.504
693.447	1289.559
693.575	1292.110
693.703	1283.874
693.831	1282.543
693.960	1276.882
694.088	1282.173
694.216	1274.055
694.344	1263.299
694.472	1281.535
694.600	1268.142
694.728	1255.339
694.856	1255.205
694.985	1256.740
695.113	1242.252
695.241	1245.520
695.369	1246.890
695.497	1245.693
695.625	1254.173
695.753	1251.528
695.881	1232.094
696.010	1227.441
696.138	1224.189
696.266	1221.386
696.394	1227.764
696.522	1216.717
696.650	1204.094
696.778	1207.181
696.906	1210.102
697.035	1203.850
697.163	1185.142
697.291	1191.260
697.419	1190.819
697.547	1179.764
697.675	1185.622
697.803	1179.819
697.931	1176.181
698.060	1171.945
698.188	1164.197
698.316	1165.197
698.444	1160.488
698.572	1152.874
698.700	1165.157
698.828	1155.921
698.956	1147.394
699.085	1133.118
699.213	1131.031
699.341	1124.079
699.469	1137.102
699.597	1138.378
699.725	1125.465
699.853	1121.228
699.981	1124.165
700.110	1118.165
700.238	1113.756
700.366	1110.748
700.494	1104.433
700.622	1111.882
700.750	1093.189
700.878	1101.323
701.006	1076.551
701.135	1092.945
701.263	1086.717
701.391	1077.339
701.519	1090.480
701.647	1076.386
701.775	1075.000
701.903	1071.630
702.031	1071.268
702.160	1074.945
702.288	1066.748
702.416	1061.685
702.544	1063.000
702.672	1058.008
702.800	1046.921
702.928	1054.803
703.056	1041.898
703.185	1047.157
703.313	1040.685
703.441	1038.394
703.569	1035.236
703.697	1035.291
703.825	1029.126
703.953	1028.937
704.081	1022.339
704.210	1019.906
704.338	1026.654
704.466	1016.598
704.594	1011.654
704.722	1013.268
704.850	1012.220
704.978	1008.181
705.106	1005.402
705.235	987.417
705.363	999.244
705.491	997.283
705.619	991.850
705.747	982.024
705.875	997.000
706.003	979.031
706.131	987.669
706.260	979.354
706.388	972.386
706.516	970.307
706.644	970.858
706.772	974.394
706.900	953.236
707.028	954.756
707.156	949.677
707.285	955.929
707.413	947.843
707.541	935.638
707.669	934.669
707.797	941.780
707.925	934.055
708.053	937.551
708.181	922.386
708.310	922.583
708.438	921.740
708.566	925.102
708.694	918.937
708.822	920.157
708.950	913.811
709.078	905.094
709.206	905.000
709.335	905.378
709.463	906.433
709.591	889.386
709.719	896.039
709.847	886.362
709.975	889.984
710.103	875.780
710.231	873.063
710.360	863.465
710.488	862.535
710.616	864.630
710.744	863.819
710.872	864.512
711.000	853.213
711.128	848.717
711.256	853.787
711.385	854.543
711.513	842.449
711.641	843.504
711.769	839.811
711.897	836.874
712.025	827.181
712.153	831.929
712.281	832.079
712.410	826.213
712.538	825.016
712.666	820.087
712.794	817.535
712.922	818.024
713.050	813.827
713.178	805.646
713.306	810.504
713.435	808.906
713.563	803.551
713.691	810.189
713.819	801.307
713.947	790.465
714.075	789.882
714.203	784.307
714.331	785.717
714.460	782.480
714.588	781.402
714.716	780.850
714.844	784.677
714.972	765.520
715.100	773.551
715.228	776.953
715.356	766.874
715.485	766.307
715.613	758.866
715.741	764.425
715.869	759.228
715.997	747.094
716.125	748.567
716.253	743.638
716.381	749.992
716.510	756.346
716.638	746.898
716.766	736.118
716.894	737.087
717.022	734.378
717.150	734.189
717.278	723.205
717.406	731.165
717.535	731.520
717.663	719.480
717.791	725.528
717.919	714.583
718.047	718.102
718.175	715.433
718.303	718.677
718.431	713.150
718.560	717.008
718.688	709.811
718.816	704.906
718.944	706.181
719.072	705.386
719.200	697.488
719.328	691.669
719.456	697.157
719.585	695.913
719.713	696.992
719.841	691.984
719.969	688.307
720.097	677.638
720.225	681.094
720.353	680.835
720.481	679.472
720.610	678.008
720.738	669.614
720.866	668.669
720.994	670.969
721.122	673.173
721.250	669.567
721.378	661.457
721.506	665.142
721.635	661.339
721.763	656.331
721.891	654.551
722.019	651.748
722.147	654.000
722.275	645.039
722.403	648.866
722.531	647.205
722.660	643.409
722.788	637.528
722.916	646.598
723.044	635.087
723.172	633.189
723.300	633.992
723.428	632.638
723.556	625.402
723.685	629.858
723.813	625.591
723.941	621.740
724.069	619.016
724.197	615.732
724.325	612.850
724.453	607.850
724.581	617.906
724.710	605.654
724.838	605.945
724.966	597.000
725.094	600.370
725.222	590.661
725.350	592.472
725.478	589.457
725.606	591.055
725.735	586.772
725.863	589.843
725.991	584.386
726.119	583.567
726.247	578.008
726.375	579.756
726.503	577.024
726.631	575.520
726.760	573.850
726.888	570.299
727.016	565.961
727.144	566.661
727.272	566.504
727.400	559.205
727.528	553.173
727.656	554.827
727.785	549.740
727.913	555.394
728.041	545.331
728.169	558.425
728.297	541.402
728.425	543.843
728.553	543.220
728.681	532.449
728.810	540.433
728.938	532.528
729.066	535.827
729.194	536.276
729.322	529.685
729.450	523.669
729.578	533.520
729.706	519.362
729.835	524.685
729.963	518.567
730.091	516.433
730.219	515.866
730.347	520.402
730.475	511.606
730.603	512.205
730.731	514.354
730.860	510.992
730.988	507.638
731.116	507.031
731.244	502.866
731.372	502.197
731.500	500.630
731.628	501.260
731.756	494.307
731.885	495.795
732.013	496.811
732.141	490.756
732.269	488.795
732.397	494.913
732.525	485.409
732.653	486.543
732.781	483.890
732.910	489.189
733.038	480.559
733.166	480.890
733.294	482.669
733.422	472.858
733.550	477.362
733.678	477.110
733.806	481.299
733.935	473.220
734.063	468.268
734.191	472.646
734.319	463.378
734.447	467.488
734.575	464.685
734.703	460.378
734.831	460.244
734.960	461.780
735.088	461.669
735.216	462.283
735.344	452.220
735.472	452.197
735.600	461.346
735.728	454.976
735.856	451.669
735.985	454.079
736.113	454.803
736.241	451.819
736.369	448.803
736.497	444.969
736.625	446.953
736.753	447.362
736.881	440.866
737.010	446.591
737.138	437.835
737.266	444.047
737.394	440.504
737.522	438.465
737.650	434.394
737.778	437.724
737.906	429.142
738.035	427.898
738.163	432.764
738.291	426.362
738.419	423.299
738.547	425.339
738.675	422.567
738.803	423.346
738.931	418.803
739.060	423.961
739.188	423.150
739.316	416.449
739.444	419.614
739.572	416.504
739.700	413.827
739.828	418.543
739.956	415.567
740.085	414.213
740.213	411.866
740.341	405.882
740.469	410.252
740.597	410.512
740.725	407.276
740.853	404.181
740.981	408.535
741.110	406.764
741.238	403.417
741.366	405.630
741.494	406.685
741.622	400.630
741.750	400.228
741.878	403.362
742.006	395.772
742.135	400.307
742.263	396.441
742.391	392.984
742.519	399.362
742.647	391.709
742.775	398.126
742.903	390.409
743.031	385.150
743.160	389.984
743.288	390.276
743.416	382.299
743.544	386.937
743.672	389.205
743.800	385.118
743.928	381.717
744.056	382.197
744.185	389.567
744.313	383.717
744.441	382.520
744.569	380.937
744.697	377.134
744.825	384.150
744.953	377.252
745.081	377.701
745.210	379.189
745.338	376.291
745.466	369.669
745.594	371.173
745.722	370.654
745.850	367.024
745.978	372.055
746.106	373.315
746.235	367.906
746.363	369.874
746.491	364.339
746.619	368.323
746.747	364.331
746.875	362.811
747.003	360.953
747.131	365.866
747.260	357.866
747.388	363.992
747.516	364.409
747.644	358.646
747.772	358.181
747.900	355.346
748.028	359.591
748.156	352.173
748.285	357.543
748.413	355.614
748.541	351.323
748.669	349.252
748.797	346.693
748.925	351.394
749.053	350.646
749.181	348.913
749.310	345.583
749.438	349.693
749.566	347.874
749.694	344.756
749.822	343.732
749.950	344.669
750.078	343.000
750.206	335.921
750.335	341.228
750.463	338.772
750.591	341.260
750.719	336.724
750.847	335.606
750.975	332.764
751.103	333.047
751.231	336.480
751.360	335.622
751.488	330.504
751.616	328.315
751.744	327.528
751.872	327.189
752.000	328.535
752.128	324.047
752.256	324.717
752.385	324.425
752.513	323.787
752.641	321.087
752.769	324.772
752.897	318.567
753.025	314.189
753.153	316.165
753.281	315.819
753.410	319.213
753.538	316.827
753.666	315.220
753.794	315.409
753.922	312.173
754.050	312.512
754.178	312.189
754.306	306.465
754.435	313.394
754.563	312.961
754.691	311.228
754.819	309.425
754.947	307.087
755.075	309.386
755.203	307.811
755.331	307.433
755.460	303.165
755.588	305.913
755.716	300.945
755.844	300.394
755.972	299.693
756.100	303.622
756.228	300.969
756.356	298.937
756.485	306.213
756.613	298.031
756.741	296.378
756.869	299.787
756.997	292.142
757.125	300.315
757.253	297.787
757.381	297.811
757.510	297.953
757.638	296.858
757.766	295.732
757.894	288.331
758.022	293.496
758.150	292.992
758.278	291.756
758.406	287.339
758.535	289.772
758.663	291.008
758.791	284.614
758.919	286.638
759.047	288.772
759.175	285.402
759.303	287.031
759.431	286.339
759.560	285.835
759.688	283.276
759.816	283.969
759.944	282.504
760.072	278.150
760.200	278.843
760.328	282.559
760.456	278.465
760.585	277.646
760.713	277.488
760.841	277.016
760.969	277.079
761.097	274.457
761.225	276.260
761.353	276.701
761.481	273.465
761.610	273.142
761.738	270.803
761.866	275.543
761.994	271.685
762.122	271.480
762.250	272.701
762.378	267.370
762.506	270.047
762.635	270.236
762.763	270.173
762.891	268.173
763.019	269.181
763.147	269.244
763.275	268.260
763.403	264.850
763.531	265.724
763.660	266.472
763.788	266.457
763.916	260.811
764.044	263.764
764.172	266.929
764.300	261.606
764.428	263.331
764.556	260.677
764.685	261.205
764.813	259.528
764.941	258.811
765.069	260.354
765.197	259.961
765.325	256.173
765.453	257.496
765.581	261.157
765.710	255.913
765.838	255.953
765.966	258.315
766.094	251.512
766.222	254.677
766.350	255.228
766.478	254.409
766.606	255.795
766.735	251.362
766.863	248.260
766.991	253.598
767.119	250.961
767.247	249.370
767.375	247.031
767.503	252.197
767.631	251.528
767.760	249.898
767.888	252.157
768.016	251.134
768.144	245.661
768.272	246.945
768.400	246.622
768.528	249.567
768.656	244.118
768.785	244.480
768.913	247.276
769.041	246.906
769.169	244.252
769.297	243.638
769.425	243.362
769.553	243.543
769.681	247.307
769.810	243.929
769.938	239.748
770.066	243.079
770.194	239.890
770.322	239.252
770.450	243.110
770.578	242.031
770.706	235.063
770.835	241.913
770.963	240.181
771.091	238.630
771.219	239.118
771.347	237.339
771.475	239.063
771.603	239.268
771.731	236.976
771.860	238.850
771.988	236.008
772.116	238.031
772.244	234.551
772.372	238.071
772.500	236.331
772.628	235.118
772.756	233.181
772.885	234.504
773.013	232.724
773.141	229.307
773.269	233.953
773.397	233.724
773.525	229.780
773.653	232.346
773.781	229.677
773.910	230.772
774.038	229.236
774.166	233.047
774.294	230.504
774.422	227.969
774.550	231.583
774.678	228.882
774.806	226.984
774.935	230.150
775.063	225.039
775.191	226.874
775.319	226.157
775.447	225.126
775.575	226.157
775.703	226.638
775.831	223.488
775.960	226.173
776.088	220.567
776.216	223.252
776.344	222.961
776.472	224.165
776.600	220.260
776.728	221.575
776.856	221.016
776.985	219.575
777.113	220.157
777.241	221.268
777.369	222.370
777.497	217.622
777.625	222.220
777.753	219.000
777.881	220.063
778.010	215.858
778.138	216.346
778.266	218.409
778.394	216.756
778.522	219.496
778.650	216.008
778.778	215.236
778.906	216.433
779.035	216.079
779.163	213.157
779.291	213.449
779.419	216.772
779.547	215.252
779.675	209.874
779.803	215.984
779.931	210.772
780.060	215.031
780.188	210.543
780.316	211.283
780.444	212.291
780.572	209.921
780.700	212.661
780.828	207.976
780.956	212.512
781.085	209.591
781.213	208.362
781.341	209.386
781.469	211.961
781.597	210.228
781.725	206.945
781.853	207.394
781.981	205.071
782.110	205.732
782.238	204.913
782.366	207.953
782.494	201.732
782.622	205.378
782.750	206.094
782.878	205.016
783.006	202.835
783.135	203.654
783.263	203.063
783.391	201.031
783.519	203.055
783.647	201.953
783.775	202.268
783.903	201.339
784.031	196.803
784.160	197.882
784.288	200.331
784.416	199.047
784.544	198.260
784.672	197.000
784.800	196.929
784.928	197.567
785.056	197.575
785.185	196.535
785.313	195.591
785.441	198.528
785.569	197.244
785.697	197.606
785.825	194.732
785.953	194.409
786.081	194.795
786.210	189.945
786.338	195.346
786.466	191.992
786.594	194.701
786.722	190.961
786.850	190.701
786.978	191.937
787.106	189.969
787.235	188.039
787.363	192.425
787.491	189.228
787.619	188.882
787.747	190.472
787.875	187.094
788.003	187.496
788.131	187.748
788.260	187.488
788.388	189.906
788.516	187.087
788.644	187.134
788.772	185.291
788.900	187.480
789.028	184.394
789.156	184.449
789.285	185.457
789.413	183.764
789.541	184.386
789.669	182.354
789.797	183.378
789.925	182.669
790.053	182.929
790.181	183.709
790.310	180.827
790.438	180.858
790.566	179.047
790.694	180.906
790.822	180.748
790.950	182.717
791.078	180.630
791.206	179.449
791.335	177.606
791.463	178.488
791.591	177.087
791.719	178.929
791.847	176.866
791.975	175.252
792.103	176.748
792.231	179.087
792.360	177.898
792.488	175.031
792.616	179.551
792.744	176.063
792.872	174.732
793.000	176.472
793.128	175.307
793.256	176.890
793.385	173.465
793.513	173.630
793.641	175.551
793.769	172.866
793.897	172.850
794.025	170.890
794.153	172.992
794.281	173.693
794.410	169.291
794.538	171.795
794.666	170.906
794.794	172.480
794.922	171.276
795.050	170.150
795.178	171.535
795.306	167.354
795.435	169.528
795.563	168.850
795.691	168.433
795.819	169.953
795.947	168.701
796.075	169.118
796.203	170.394
796.331	167.228
796.460	166.252
796.588	167.205
796.716	167.236
796.844	166.449
796.972	167.299
797.100	167.661
797.228	166.866
797.356	168.512
797.485	165.299
797.613	163.386
797.741	165.724
797.869	166.535
797.997	165.307
798.125	163.535
798.253	166.150
798.381	161.551
798.510	163.567
798.638	161.252
798.766	163.559
798.894	165.354
799.022	162.890
799.150	161.937
799.278	160.992
799.406	162.937
799.535	161.756
799.663	162.890
799.791	161.976
799.919	160.827
800.047	160.937
800.175	162.268
800.303	159.520
800.431	159.291
800.560	159.850
800.688	158.748
800.816	160.339
800.944	158.315
801.072	159.803
801.200	158.504
801.328	157.591
801.456	158.559
801.585	158.307
801.713	157.425
801.841	157.898
801.969	156.520
802.097	159.000
802.225	158.961
802.353	158.339
802.481	155.362
802.610	156.197
802.738	156.386
802.866	158.252
802.994	155.291
803.122	155.126
803.250	156.110
803.378	156.890
803.506	155.236
803.635	155.646
803.763	155.787
803.891	153.126
804.019	154.866
804.147	154.071
804.275	154.118
804.403	153.197
804.531	154.709
804.660	152.449
804.788	150.929
804.916	151.472
805.044	155.606
805.172	152.874
805.300	152.819
805.428	151.236
805.556	153.362
805.685	153.055
805.813	152.126
805.941	150.898
806.069	151.213
806.197	152.496
806.325	150.441
806.453	149.425
806.581	149.630
806.710	148.992
806.838	149.472
806.966	149.213
807.094	150.283
807.222	150.677
807.350	148.827
807.478	149.488
807.606	150.496
807.735	148.622
807.863	147.551
807.991	149.220
808.119	147.252
808.247	145.638
808.375	147.740
808.503	148.472
808.631	146.787
808.760	146.898
808.888	145.457
809.016	146.504
809.144	147.874
809.272	145.134
809.400	147.331
809.528	144.260
809.656	144.717
809.785	144.638
809.913	145.882
810.041	146.701
810.169	141.843
810.297	145.441
810.425	144.000
810.553	142.921
810.681	145.677
810.810	143.433
810.938	145.228
811.066	143.402
811.194	144.898
811.322	144.094
811.450	142.654
811.578	143.969
811.706	142.134
811.835	141.528
811.963	142.181
812.091	141.535
812.219	143.402
812.347	142.622
812.475	142.008
812.603	142.913
812.731	139.945
812.860	139.945
812.988	142.181
813.116	140.882
813.244	139.969
813.372	141.921
813.500	139.307
813.628	141.866
813.756	139.488
813.885	139.480
814.013	139.213
814.141	140.008
814.269	139.126
814.397	139.071
814.525	139.260
814.653	140.315
814.781	138.047
814.910	138.205
815.038	137.535
815.166	138.567
815.294	138.520
815.422	138.528
815.550	137.402
815.678	138.260
815.806	137.591
815.935	137.685
816.063	135.748
816.191	136.551
816.319	136.457
816.447	136.646
816.575	136.858
816.703	136.512
816.831	135.488
816.960	138.567
817.088	136.772
817.216	136.677
817.344	133.732
817.472	138.110
817.600	135.480
817.728	136.354
817.856	137.260
817.985	135.039
818.113	134.575
818.241	135.268
818.369	134.575
818.497	136.606
818.625	133.724
818.753	133.850
818.881	134.118
819.010	130.638
819.138	134.575
819.266	133.567
819.394	133.969
819.522	129.866
819.650	134.528
819.778	132.283
819.906	132.488
820.035	133.228
820.163	130.409
820.291	130.181
820.419	131.906
820.547	131.244
820.675	130.685
820.803	131.906
820.931	132.858
821.060	129.764
821.188	131.126
821.316	130.205
821.444	132.528
821.572	130.370
821.700	131.063
821.828	131.677
821.956	131.346
822.085	131.488
822.213	131.528
822.341	130.315
822.469	129.362
822.597	129.874
822.725	129.961
822.853	128.843
822.981	129.858
823.110	131.039
823.238	128.449
823.366	128.756
823.494	129.087
823.622	128.283
823.750	127.606
823.878	127.583
824.006	130.291
824.135	128.717
824.263	129.740
824.391	128.228
824.519	127.992
824.647	127.142
824.775	129.031
824.903	130.567
825.031	128.346
825.160	129.063
825.288	127.520
825.416	127.709
825.544	128.472
825.672	127.205
825.800	126.906
825.928	127.134
826.056	127.331
826.185	127.244
826.313	126.402
826.441	128.567
826.569	126.591
826.697	127.496
826.825	125.693
826.953	128.551
827.081	126.346
827.210	127.071
827.338	124.850
827.466	125.276
827.594	125.528
827.722	125.622
827.850	124.354
827.978	125.299
828.106	126.165
828.235	124.913
828.363	125.520
828.491	124.764
828.619	123.882
828.747	125.512
828.875	124.984
829.003	126.480
829.131	126.134
829.260	125.323
829.388	123.890
829.516	124.000
829.644	124.811
829.772	124.362
829.900	123.354
830.028	124.457
830.156	122.969
830.285	125.449
830.413	124.315
830.541	123.567
830.669	123.850
830.797	123.567
830.925	124.220
831.053	124.236
831.181	123.323
831.310	123.378
831.438	121.850
831.566	122.260
831.694	122.622
831.822	122.535
831.950	122.449
832.078	123.197
832.206	121.748
832.335	122.449
832.463	123.291
832.591	122.559
832.719	122.315
832.847	121.118
832.975	120.291
833.103	121.858
833.231	120.315
833.360	121.709
833.488	121.795
833.616	119.961
833.744	120.055
833.872	121.528
834.000	121.512
834.128	120.717
834.256	120.268
834.385	120.213
834.513	120.937
834.641	118.425
834.769	120.039
834.897	120.197
835.025	118.520
835.153	119.291
835.281	120.551
835.410	120.669
835.538	120.472
835.666	119.346
835.794	120.220
835.922	119.638
836.050	117.417
836.178	119.748
836.306	119.268
836.435	119.362
836.563	119.307
836.691	119.236
836.819	119.504
836.947	117.654
837.075	118.496
837.203	118.402
837.331	117.811
837.460	118.063
837.588	118.795
837.716	119.835
837.844	119.094
837.972	119.598
838.100	117.992
838.228	117.961
838.356	117.488
838.485	117.283
838.613	118.890
838.741	117.992
838.869	118.354
838.997	118.339
839.125	115.756
839.253	117.433
839.381	117.346
839.510	116.772
839.638	117.236
839.766	116.992
839.894	116.236
840.022	118.693
840.150	116.898
840.278	115.803
840.406	116.630
840.535	116.984
840.663	116.181
840.791	116.850
840.919	116.031
841.047	116.181
841.175	116.394
841.303	117.055
841.431	115.094
841.560	115.323
841.688	114.252
841.816	115.827
841.944	116.661
842.072	116.000
842.200	115.528
842.328	115.559
842.456	115.346
842.585	115.969
842.713	116.024
842.841	113.953
842.969	114.921
843.097	116.378
843.225	115.205
843.353	115.126
843.481	113.638
843.610	115.465
843.738	114.354
843.866	113.173
