90-120-0_at_679.99nm_cut_at_1250.00Y_01.dat
24.01.2024
13:32:07
cut middle at Y: 1250.00
top cursor: 1310 down cursor: 1190 mean of: 120 lines , 2560 datapoints
wavelength(nm)	intensity[arb. units]
515.994	270.217
516.122	262.325
516.250	258.908
516.378	254.608
516.506	254.942
516.635	253.225
516.763	264.150
516.891	260.942
517.019	257.658
517.147	258.733
517.275	260.392
517.403	260.592
517.531	260.750
517.660	260.183
517.788	258.242
517.916	265.458
518.044	263.250
518.172	262.000
518.300	265.575
518.428	259.217
518.556	261.533
518.685	263.800
518.813	267.292
518.941	265.217
519.069	264.433
519.197	264.483
519.325	269.583
519.453	265.333
519.581	269.050
519.710	268.342
519.838	269.242
519.966	268.417
520.094	270.658
520.222	268.975
520.350	267.967
520.478	271.700
520.606	272.833
520.735	270.833
520.863	275.075
520.991	276.600
521.119	273.300
521.247	277.233
521.375	274.583
521.503	277.200
521.631	276.100
521.760	275.092
521.888	276.492
522.016	279.508
522.144	280.833
522.272	281.758
522.400	283.700
522.528	284.500
522.656	281.908
522.785	285.442
522.913	285.067
523.041	280.717
523.169	278.317
523.297	285.333
523.425	284.617
523.553	286.008
523.681	285.267
523.810	284.742
523.938	289.642
524.066	287.208
524.194	291.583
524.322	289.167
524.450	284.350
524.578	285.783
524.706	288.775
524.835	289.400
524.963	287.175
525.091	287.967
525.219	284.867
525.347	285.442
525.475	286.325
525.603	284.717
525.731	286.467
525.860	291.892
525.988	289.450
526.116	289.092
526.244	287.275
526.372	288.808
526.500	290.950
526.628	289.925
526.756	286.983
526.885	291.033
527.013	287.483
527.141	290.425
527.269	290.633
527.397	288.358
527.525	292.558
527.653	288.058
527.781	287.700
527.910	291.733
528.038	289.758
528.166	295.900
528.294	292.808
528.422	294.233
528.550	292.392
528.678	292.225
528.806	296.550
528.935	297.975
529.063	296.567
529.191	299.308
529.319	300.267
529.447	299.883
529.575	297.158
529.703	300.917
529.831	300.608
529.960	300.133
530.088	298.992
530.216	303.025
530.344	295.725
530.472	298.617
530.600	298.525
530.728	301.442
530.856	300.892
530.985	298.775
531.113	299.808
531.241	301.558
531.369	302.883
531.497	300.258
531.625	300.067
531.753	300.183
531.881	303.325
532.010	299.933
532.138	299.092
532.266	299.892
532.394	298.200
532.522	296.925
532.650	303.125
532.778	303.158
532.906	302.375
533.035	302.258
533.163	297.692
533.291	300.617
533.419	300.367
533.547	300.550
533.675	299.442
533.803	298.750
533.931	299.942
534.060	300.542
534.188	302.650
534.316	298.233
534.444	299.292
534.572	305.983
534.700	304.117
534.828	306.058
534.956	301.833
535.085	306.200
535.213	304.025
535.341	305.092
535.469	308.583
535.597	310.100
535.725	309.708
535.853	306.992
535.981	306.558
536.110	310.542
536.238	307.683
536.366	313.558
536.494	310.550
536.622	311.733
536.750	313.533
536.878	317.292
537.006	314.392
537.135	314.717
537.263	316.558
537.391	314.992
537.519	315.458
537.647	323.450
537.775	318.042
537.903	315.167
538.031	318.792
538.160	315.858
538.288	320.783
538.416	322.933
538.544	317.658
538.672	320.192
538.800	323.100
538.928	320.092
539.056	320.350
539.185	320.792
539.313	324.417
539.441	325.750
539.569	322.817
539.697	326.400
539.825	325.875
539.953	322.183
540.081	321.567
540.210	321.358
540.338	323.025
540.466	325.475
540.594	323.942
540.722	323.158
540.850	325.675
540.978	323.658
541.106	323.867
541.235	326.592
541.363	328.675
541.491	327.167
541.619	322.242
541.747	327.383
541.875	324.958
542.003	326.267
542.131	323.517
542.260	332.383
542.388	325.750
542.516	324.933
542.644	327.717
542.772	325.433
542.900	329.150
543.028	326.825
543.156	327.200
543.285	331.642
543.413	324.175
543.541	326.442
543.669	331.200
543.797	331.983
543.925	327.508
544.053	328.433
544.181	332.650
544.310	329.325
544.438	329.958
544.566	328.958
544.694	330.450
544.822	329.300
544.950	332.100
545.078	330.725
545.206	329.200
545.335	325.625
545.463	327.242
545.591	334.883
545.719	325.233
545.847	326.892
545.975	330.383
546.103	331.250
546.231	331.750
546.360	330.008
546.488	329.658
546.616	327.800
546.744	330.258
546.872	327.000
547.000	328.767
547.128	334.500
547.256	326.717
547.385	329.150
547.513	328.533
547.641	328.417
547.769	328.350
547.897	330.325
548.025	331.250
548.153	333.142
548.281	324.533
548.410	330.425
548.538	330.550
548.666	332.917
548.794	326.692
548.922	332.392
549.050	335.417
549.178	334.025
549.306	333.858
549.435	337.917
549.563	332.258
549.691	333.575
549.819	334.050
549.947	333.400
550.075	330.958
550.203	336.842
550.331	332.575
550.460	333.667
550.588	336.992
550.716	333.233
550.844	334.417
550.972	333.433
551.100	333.092
551.228	334.125
551.356	327.092
551.485	330.833
551.613	331.683
551.741	331.158
551.869	331.350
551.997	326.617
552.125	330.408
552.253	331.117
552.381	327.325
552.510	326.742
552.638	326.183
552.766	327.875
552.894	328.042
553.022	332.258
553.150	327.558
553.278	329.717
553.406	329.408
553.535	329.025
553.663	327.658
553.791	325.308
553.919	324.308
554.047	328.883
554.175	325.525
554.303	322.042
554.431	323.633
554.560	327.567
554.688	327.342
554.816	330.317
554.944	326.475
555.072	326.617
555.200	324.725
555.328	324.367
555.456	323.908
555.585	327.517
555.713	327.208
555.841	329.433
555.969	328.825
556.097	326.242
556.225	324.942
556.353	331.308
556.481	324.892
556.610	325.383
556.738	328.500
556.866	324.775
556.994	326.250
557.122	325.158
557.250	329.542
557.378	330.758
557.506	329.925
557.635	325.817
557.763	327.017
557.891	329.433
558.019	325.850
558.147	324.125
558.275	332.492
558.403	332.808
558.531	326.892
558.660	330.650
558.788	329.642
558.916	329.650
559.044	325.192
559.172	327.142
559.300	329.408
559.428	328.467
559.556	327.967
559.685	331.533
559.813	325.967
559.941	327.542
560.069	331.233
560.197	325.900
560.325	325.808
560.453	329.433
560.581	328.242
560.710	324.933
560.838	327.283
560.966	327.792
561.094	328.692
561.222	325.417
561.350	326.333
561.478	325.583
561.606	327.333
561.735	325.942
561.863	322.983
561.991	327.267
562.119	327.683
562.247	325.975
562.375	327.858
562.503	325.308
562.631	324.608
562.760	319.792
562.888	325.008
563.016	325.242
563.144	324.892
563.272	323.492
563.400	322.900
563.528	322.133
563.656	321.758
563.785	323.067
563.913	323.958
564.041	323.400
564.169	325.983
564.297	324.242
564.425	323.992
564.553	327.458
564.681	323.133
564.810	319.825
564.938	326.708
565.066	324.692
565.194	332.242
565.322	327.892
565.450	325.517
565.578	328.108
565.706	325.317
565.835	325.592
565.963	325.667
566.091	326.242
566.219	328.675
566.347	325.808
566.475	326.742
566.603	330.575
566.731	327.200
566.860	325.142
566.988	329.250
567.116	332.417
567.244	330.433
567.372	326.775
567.500	332.008
567.628	328.292
567.756	335.025
567.885	331.842
568.013	332.117
568.141	333.917
568.269	330.150
568.397	329.683
568.525	331.758
568.653	334.108
568.781	335.108
568.910	339.950
569.038	335.658
569.166	329.542
569.294	335.275
569.422	339.200
569.550	332.642
569.678	334.867
569.806	336.350
569.935	336.933
570.063	339.208
570.191	338.958
570.319	335.475
570.447	336.925
570.575	338.258
570.703	339.992
570.831	339.633
570.960	336.025
571.088	340.867
571.216	340.900
571.344	335.442
571.472	337.592
571.600	342.642
571.728	341.233
571.856	339.592
571.985	338.850
572.113	340.550
572.241	337.442
572.369	342.508
572.497	338.983
572.625	338.575
572.753	337.317
572.881	342.492
573.010	341.058
573.138	341.167
573.266	349.458
573.394	342.875
573.522	342.700
573.650	347.050
573.778	341.708
573.906	346.433
574.035	341.575
574.163	339.892
574.291	344.417
574.419	341.517
574.547	343.825
574.675	342.825
574.803	344.042
574.931	342.292
575.060	345.467
575.188	347.158
575.316	343.100
575.444	343.825
575.572	342.683
575.700	342.025
575.828	347.783
575.956	340.892
576.085	347.167
576.213	344.175
576.341	339.275
576.469	340.542
576.597	345.858
576.725	342.075
576.853	340.242
576.981	340.967
577.110	339.342
577.238	342.908
577.366	344.167
577.494	338.225
577.622	337.392
577.750	343.892
577.878	341.992
578.006	340.792
578.135	342.433
578.263	341.625
578.391	344.767
578.519	341.575
578.647	340.433
578.775	342.308
578.903	343.508
579.031	342.458
579.160	342.725
579.288	344.317
579.416	342.425
579.544	342.642
579.672	343.858
579.800	344.267
579.928	344.267
580.056	338.300
580.185	340.583
580.313	346.042
580.441	345.783
580.569	342.250
580.697	345.800
580.825	345.033
580.953	343.833
581.081	349.517
581.210	346.942
581.338	349.883
581.466	350.075
581.594	347.875
581.722	346.558
581.850	345.292
581.978	347.917
582.106	345.533
582.235	350.283
582.363	348.017
582.491	350.867
582.619	351.100
582.747	350.950
582.875	353.750
583.003	353.958
583.131	352.208
583.260	353.817
583.388	352.733
583.516	354.467
583.644	355.333
583.772	362.400
583.900	358.892
584.028	359.775
584.156	357.975
584.285	358.742
584.413	361.858
584.541	359.783
584.669	358.467
584.797	358.192
584.925	360.592
585.053	364.517
585.181	364.017
585.310	362.300
585.438	367.842
585.566	364.017
585.694	369.300
585.822	361.017
585.950	362.500
586.078	369.850
586.206	368.150
586.335	365.017
586.463	366.883
586.591	368.650
586.719	367.542
586.847	367.417
586.975	370.042
587.103	368.508
587.231	368.158
587.360	373.342
587.488	372.792
587.616	374.117
587.744	372.050
587.872	371.625
588.000	369.508
588.128	376.742
588.256	373.242
588.385	369.600
588.513	372.733
588.641	369.283
588.769	369.233
588.897	368.325
589.025	370.108
589.153	372.467
589.281	365.583
589.410	373.875
589.538	371.383
589.666	376.983
589.794	371.658
589.922	372.192
590.050	376.633
590.178	369.800
590.306	372.133
590.435	372.600
590.563	368.192
590.691	368.883
590.819	373.067
590.947	374.733
591.075	371.933
591.203	372.283
591.331	375.875
591.460	376.250
591.588	370.892
591.716	376.267
591.844	375.683
591.972	377.792
592.100	373.292
592.228	375.417
592.356	378.775
592.485	375.208
592.613	375.100
592.741	373.842
592.869	374.292
592.997	377.683
593.125	379.850
593.253	378.508
593.381	378.033
593.510	374.308
593.638	374.892
593.766	373.842
593.894	381.542
594.022	381.892
594.150	380.825
594.278	384.600
594.406	383.033
594.535	380.517
594.663	380.300
594.791	384.158
594.919	382.850
595.047	386.025
595.175	384.767
595.303	375.117
595.431	382.158
595.560	388.217
595.688	384.200
595.816	384.150
595.944	384.633
596.072	388.408
596.200	380.358
596.328	382.492
596.456	389.083
596.585	388.192
596.713	389.467
596.841	385.542
596.969	387.850
597.097	391.075
597.225	392.892
597.353	392.625
597.481	385.842
597.610	393.250
597.738	388.050
597.866	388.283
597.994	390.908
598.122	389.625
598.250	383.425
598.378	388.200
598.506	394.617
598.635	389.108
598.763	394.358
598.891	393.300
599.019	390.408
599.147	391.142
599.275	391.200
599.403	389.258
599.531	392.067
599.660	393.342
599.788	391.108
599.916	390.767
600.044	386.842
600.172	393.383
600.300	390.442
600.428	391.558
600.556	389.417
600.685	396.575
600.813	398.542
600.941	399.558
601.069	396.667
601.197	398.392
601.325	394.708
601.453	393.992
601.581	396.142
601.710	399.850
601.838	402.217
601.966	397.225
602.094	400.667
602.222	396.683
602.350	395.408
602.478	398.333
602.606	404.308
602.735	401.750
602.863	404.792
602.991	402.308
603.119	409.350
603.247	406.033
603.375	403.742
603.503	398.583
603.631	403.867
603.760	406.608
603.888	411.075
604.016	403.350
604.144	408.458
604.272	407.817
604.400	402.750
604.528	407.350
604.656	409.583
604.785	406.075
604.913	413.258
605.041	409.908
605.169	411.083
605.297	408.242
605.425	409.517
605.553	415.183
605.681	407.983
605.810	410.908
605.938	411.917
606.066	410.442
606.194	409.142
606.322	409.008
606.450	409.642
606.578	410.942
606.706	410.325
606.835	415.275
606.963	416.433
607.091	409.325
607.219	416.875
607.347	407.692
607.475	417.842
607.603	416.250
607.731	410.933
607.860	412.892
607.988	411.767
608.116	413.383
608.244	412.183
608.372	411.408
608.500	414.433
608.628	410.117
608.756	412.292
608.885	409.467
609.013	415.742
609.141	407.558
609.269	408.317
609.397	414.475
609.525	413.433
609.653	410.458
609.781	409.700
609.910	410.292
610.038	407.458
610.166	412.800
610.294	415.950
610.422	417.367
610.550	413.633
610.678	410.808
610.806	409.375
610.935	415.575
611.063	410.867
611.191	412.267
611.319	412.742
611.447	412.575
611.575	409.692
611.703	410.075
611.831	413.517
611.960	409.300
612.088	412.950
612.216	415.283
612.344	414.233
612.472	409.667
612.600	411.108
612.728	413.992
612.856	412.083
612.985	407.833
613.113	416.683
613.241	416.758
613.369	411.783
613.497	416.133
613.625	413.642
613.753	412.050
613.881	408.700
614.010	406.975
614.138	407.100
614.266	411.933
614.394	406.158
614.522	413.800
614.650	414.583
614.778	409.700
614.906	414.642
615.035	414.917
615.163	409.858
615.291	414.692
615.419	413.342
615.547	410.433
615.675	414.467
615.803	410.917
615.931	416.500
616.060	416.308
616.188	411.900
616.316	415.150
616.444	414.083
616.572	414.008
616.700	412.600
616.828	423.875
616.956	412.317
617.085	421.117
617.213	413.967
617.341	409.733
617.469	418.892
617.597	417.533
617.725	418.375
617.853	414.808
617.981	421.158
618.110	415.642
618.238	419.892
618.366	421.200
618.494	427.050
618.622	424.058
618.750	421.108
618.878	419.367
619.006	420.392
619.135	420.783
619.263	423.875
619.391	421.775
619.519	426.592
619.647	423.183
619.775	422.375
619.903	429.100
620.031	428.500
620.160	422.358
620.288	428.867
620.416	430.150
620.544	430.917
620.672	429.325
620.800	431.683
620.928	433.025
621.056	429.942
621.185	429.683
621.313	427.342
621.441	428.808
621.569	433.408
621.697	424.208
621.825	434.600
621.953	432.000
622.081	434.933
622.210	435.258
622.338	434.008
622.466	430.525
622.594	429.000
622.722	434.550
622.850	431.467
622.978	438.258
623.106	438.167
623.235	433.967
623.363	435.808
623.491	438.092
623.619	433.400
623.747	437.142
623.875	436.617
624.003	432.442
624.131	435.075
624.260	431.758
624.388	438.733
624.516	439.525
624.644	432.400
624.772	432.883
624.900	436.142
625.028	431.575
625.156	436.667
625.285	434.667
625.413	437.100
625.541	432.933
625.669	433.042
625.797	435.192
625.925	436.475
626.053	431.042
626.181	437.658
626.310	435.000
626.438	435.042
626.566	438.525
626.694	439.167
626.822	436.225
626.950	438.275
627.078	437.108
627.206	431.450
627.335	444.142
627.463	438.275
627.591	438.733
627.719	433.842
627.847	439.783
627.975	438.358
628.103	434.242
628.231	438.250
628.360	436.058
628.488	442.117
628.616	434.492
628.744	436.250
628.872	436.758
629.000	435.783
629.128	437.933
629.256	436.308
629.385	436.808
629.513	436.633
629.641	441.683
629.769	436.308
629.897	437.392
630.025	437.433
630.153	434.583
630.281	436.450
630.410	433.358
630.538	440.367
630.666	438.450
630.794	436.975
630.922	435.100
631.050	433.908
631.178	438.267
631.306	431.567
631.435	434.267
631.563	437.108
631.691	430.100
631.819	432.350
631.947	442.258
632.075	436.775
632.203	438.475
632.331	441.358
632.460	437.800
632.588	437.817
632.716	434.883
632.844	436.850
632.972	438.433
633.100	440.292
633.228	437.808
633.356	437.017
633.485	436.767
633.613	438.000
633.741	436.700
633.869	441.242
633.997	437.783
634.125	439.617
634.253	433.942
634.381	436.750
634.510	436.583
634.638	434.950
634.766	437.925
634.894	433.667
635.022	434.550
635.150	434.542
635.278	437.958
635.406	431.500
635.535	439.133
635.663	436.558
635.791	434.142
635.919	436.650
636.047	434.017
636.175	428.850
636.303	437.200
636.431	433.158
636.560	435.833
636.688	433.517
636.816	433.933
636.944	431.750
637.072	437.933
637.200	437.208
637.328	429.142
637.456	435.508
637.585	432.742
637.713	434.767
637.841	436.508
637.969	428.292
638.097	432.442
638.225	436.833
638.353	434.783
638.481	434.917
638.610	432.092
638.738	439.200
638.866	431.167
638.994	433.275
639.122	435.525
639.250	439.992
639.378	437.200
639.506	436.200
639.635	434.633
639.763	433.317
639.891	441.958
640.019	438.975
640.147	437.867
640.275	429.775
640.403	432.775
640.531	436.217
640.660	433.250
640.788	435.900
640.916	435.167
641.044	440.200
641.172	431.625
641.300	437.500
641.428	435.583
641.556	439.183
641.685	435.025
641.813	433.575
641.941	439.083
642.069	432.333
642.197	438.167
642.325	436.175
642.453	440.025
642.581	438.017
642.710	440.783
642.838	436.875
642.966	438.475
643.094	438.242
643.222	443.317
643.350	436.350
643.478	445.383
643.606	438.467
643.735	435.758
643.863	435.975
643.991	439.933
644.119	442.117
644.247	443.575
644.375	440.817
644.503	445.158
644.631	444.000
644.760	440.342
644.888	442.017
645.016	443.242
645.144	445.492
645.272	438.583
645.400	441.883
645.528	445.842
645.656	436.792
645.785	438.367
645.913	439.142
646.041	443.325
646.169	440.883
646.297	438.283
646.425	439.292
646.553	438.225
646.681	440.917
646.810	439.475
646.938	442.183
647.066	434.133
647.194	439.483
647.322	440.133
647.450	436.167
647.578	441.942
647.706	436.808
647.835	433.267
647.963	437.425
648.091	438.525
648.219	432.750
648.347	433.917
648.475	435.092
648.603	435.133
648.731	435.600
648.860	435.525
648.988	434.392
649.116	436.200
649.244	432.142
649.372	428.692
649.500	430.717
649.628	432.325
649.756	432.250
649.885	426.692
650.013	430.342
650.141	429.733
650.269	425.733
650.397	431.450
650.525	426.225
650.653	429.308
650.781	427.208
650.910	426.133
651.038	423.417
651.166	429.008
651.294	424.842
651.422	420.758
651.550	418.875
651.678	417.758
651.806	421.992
651.935	418.767
652.063	413.592
652.191	419.592
652.319	416.692
652.447	415.650
652.575	419.000
652.703	418.650
652.831	416.583
652.960	415.475
653.088	413.717
653.216	408.750
653.344	411.083
653.472	411.133
653.600	414.342
653.728	412.442
653.856	410.917
653.985	409.683
654.113	413.025
654.241	411.200
654.369	409.183
654.497	412.875
654.625	409.183
654.753	409.925
654.881	409.417
655.010	412.250
655.138	408.892
655.266	413.750
655.394	406.625
655.522	411.717
655.650	403.100
655.778	406.133
655.906	409.475
656.035	408.717
656.163	405.133
656.291	409.217
656.419	410.383
656.547	405.433
656.675	405.267
656.803	407.250
656.931	403.725
657.060	405.658
657.188	404.400
657.316	403.717
657.444	400.458
657.572	401.158
657.700	403.500
657.828	409.275
657.956	397.292
658.085	408.908
658.213	397.542
658.341	399.633
658.469	398.958
658.597	402.583
658.725	403.192
658.853	395.042
658.981	398.058
659.110	402.342
659.238	401.142
659.366	399.900
659.494	396.592
659.622	400.650
659.750	404.758
659.878	396.375
660.006	398.792
660.135	398.383
660.263	396.783
660.391	393.367
660.519	398.908
660.647	397.500
660.775	396.033
660.903	391.167
661.031	392.492
661.160	392.983
661.288	396.292
661.416	398.217
661.544	396.967
661.672	393.183
661.800	391.200
661.928	396.925
662.056	393.042
662.185	389.925
662.313	392.942
662.441	391.633
662.569	389.858
662.697	398.192
662.825	396.458
662.953	393.692
663.081	388.900
663.210	392.383
663.338	394.258
663.466	390.958
663.594	396.558
663.722	389.083
663.850	392.458
663.978	391.175
664.106	394.067
664.235	391.108
664.363	391.067
664.491	392.675
664.619	394.633
664.747	394.758
664.875	390.433
665.003	389.033
665.131	394.017
665.260	388.475
665.388	391.433
665.516	385.783
665.644	388.575
665.772	388.750
665.900	389.608
666.028	386.667
666.156	394.625
666.285	387.375
666.413	389.183
666.541	385.208
666.669	382.800
666.797	385.058
666.925	387.008
667.053	387.225
667.181	384.475
667.310	384.717
667.438	385.833
667.566	384.792
667.694	380.625
667.822	383.750
667.950	387.408
668.078	381.683
668.206	385.367
668.335	384.375
668.463	382.525
668.591	382.417
668.719	380.800
668.847	383.400
668.975	382.583
669.103	379.617
669.231	383.458
669.360	381.192
669.488	384.308
669.616	380.350
669.744	381.642
669.872	377.600
670.000	379.658
670.128	377.050
670.256	380.500
670.385	375.192
670.513	385.050
670.641	381.617
670.769	377.842
670.897	374.617
671.025	378.000
671.153	377.525
671.281	377.008
671.410	375.050
671.538	377.483
671.666	379.267
671.794	374.942
671.922	374.067
672.050	374.425
672.178	374.433
672.306	374.000
672.435	374.283
672.563	374.767
672.691	367.283
672.819	376.500
672.947	372.908
673.075	372.425
673.203	368.025
673.331	370.517
673.460	367.250
673.588	366.833
673.716	372.483
673.844	364.417
673.972	369.792
674.100	367.642
674.228	367.675
674.356	368.500
674.485	368.408
674.613	361.575
674.741	363.950
674.869	369.067
674.997	362.108
675.125	364.400
675.253	361.558
675.381	363.842
675.510	362.133
675.638	359.258
675.766	365.883
675.894	362.433
676.022	358.258
676.150	359.683
676.278	359.117
676.406	357.750
676.535	356.825
676.663	357.100
676.791	355.692
676.919	357.725
677.047	351.817
677.175	350.350
677.303	351.550
677.431	354.525
677.560	350.033
677.688	351.617
677.816	353.608
677.944	351.292
678.072	348.558
678.200	348.500
678.328	347.758
678.456	349.117
678.585	345.050
678.713	343.875
678.841	348.058
678.969	343.892
679.097	345.550
679.225	346.475
679.353	345.933
679.481	342.467
679.610	344.500
679.738	344.408
679.866	344.158
679.994	343.883
680.122	346.258
680.250	339.133
680.378	339.900
680.506	339.867
680.635	338.525
680.763	337.500
680.891	337.608
681.019	340.175
681.147	338.567
681.275	336.900
681.403	338.658
681.531	335.708
681.660	338.200
681.788	338.575
681.916	334.900
682.044	340.000
682.172	335.400
682.300	338.000
682.428	339.608
682.556	334.233
682.685	335.667
682.813	337.475
682.941	332.850
683.069	335.225
683.197	337.317
683.325	333.708
683.453	331.992
683.581	329.617
683.710	329.600
683.838	333.792
683.966	331.342
684.094	335.450
684.222	334.142
684.350	330.033
684.478	333.192
684.606	333.075
684.735	332.542
684.863	329.692
684.991	331.025
685.119	329.050
685.247	330.283
685.375	324.658
685.503	331.417
685.631	327.383
685.760	331.417
685.888	326.950
686.016	328.925
686.144	327.325
686.272	327.258
686.400	331.708
686.528	328.408
686.656	326.158
686.785	329.892
686.913	327.842
687.041	326.775
687.169	326.567
687.297	330.692
687.425	325.567
687.553	328.108
687.681	327.975
687.810	325.800
687.938	321.442
688.066	326.208
688.194	326.700
688.322	324.167
688.450	323.633
688.578	326.683
688.706	320.575
688.835	324.325
688.963	324.542
689.091	324.033
689.219	321.817
689.347	327.125
689.475	323.600
689.603	321.942
689.731	322.967
689.860	322.533
689.988	322.500
690.116	321.967
690.244	322.008
690.372	324.483
690.500	323.008
690.628	319.575
690.756	318.558
690.885	317.983
691.013	316.633
691.141	323.600
691.269	318.117
691.397	323.342
691.525	322.367
691.653	316.675
691.781	319.025
691.910	318.067
692.038	319.667
692.166	317.008
692.294	313.775
692.422	312.992
692.550	317.250
692.678	314.808
692.806	320.675
692.935	316.617
693.063	317.567
693.191	317.225
693.319	311.858
693.447	314.308
693.575	311.433
693.703	313.625
693.831	308.558
693.960	314.450
694.088	311.400
694.216	309.642
694.344	308.292
694.472	311.800
694.600	313.600
694.728	310.900
694.856	308.808
694.985	307.033
695.113	305.883
695.241	308.083
695.369	309.150
695.497	308.317
695.625	312.033
695.753	308.492
695.881	302.917
696.010	301.033
696.138	301.767
696.266	304.600
696.394	304.158
696.522	300.175
696.650	303.825
696.778	300.125
696.906	300.867
697.035	300.275
697.163	300.550
697.291	299.675
697.419	299.192
697.547	295.008
697.675	298.058
697.803	298.392
697.931	299.217
698.060	296.408
698.188	297.067
698.316	299.475
698.444	295.625
698.572	292.125
698.700	294.583
698.828	292.258
698.956	288.242
699.085	294.267
699.213	293.175
699.341	288.600
699.469	291.683
699.597	293.800
699.725	291.575
699.853	289.017
699.981	291.558
700.110	292.433
700.238	294.833
700.366	289.892
700.494	287.983
700.622	291.275
700.750	289.142
700.878	286.600
701.006	287.125
701.135	287.308
701.263	286.700
701.391	285.475
701.519	286.475
701.647	287.117
701.775	290.608
701.903	286.025
702.031	284.983
702.160	287.033
702.288	286.858
702.416	286.708
702.544	281.508
702.672	281.700
702.800	283.267
702.928	286.283
703.056	283.225
703.185	281.842
703.313	280.942
703.441	282.075
703.569	280.192
703.697	283.542
703.825	279.950
703.953	278.975
704.081	277.658
704.210	277.275
704.338	281.300
704.466	274.967
704.594	279.783
704.722	275.600
704.850	276.833
704.978	278.958
705.106	275.450
705.235	271.400
705.363	276.367
705.491	273.000
705.619	280.600
705.747	272.842
705.875	274.292
706.003	271.558
706.131	272.775
706.260	271.850
706.388	267.458
706.516	269.600
706.644	268.225
706.772	268.050
706.900	265.817
707.028	266.750
707.156	268.075
707.285	268.808
707.413	267.092
707.541	266.233
707.669	266.725
707.797	265.908
707.925	265.783
708.053	263.800
708.181	262.083
708.310	264.083
708.438	261.767
708.566	262.208
708.694	260.575
708.822	264.992
708.950	261.050
709.078	257.117
709.206	261.300
709.335	256.367
709.463	258.525
709.591	258.175
709.719	258.767
709.847	254.733
709.975	256.833
710.103	255.483
710.231	257.117
710.360	251.467
710.488	255.042
710.616	253.250
710.744	251.008
710.872	256.742
711.000	254.567
711.128	245.975
711.256	248.325
711.385	252.408
711.513	249.475
711.641	249.750
711.769	252.867
711.897	249.825
712.025	249.183
712.153	249.525
712.281	248.850
712.410	246.792
712.538	246.233
712.666	247.692
712.794	250.008
712.922	246.733
713.050	247.058
713.178	246.283
713.306	245.108
713.435	243.017
713.563	244.900
713.691	247.967
713.819	245.133
713.947	243.433
714.075	245.883
714.203	247.783
714.331	243.450
714.460	242.025
714.588	244.692
714.716	245.150
714.844	238.525
714.972	236.992
715.100	240.042
715.228	238.308
715.356	239.650
715.485	239.708
715.613	240.017
715.741	238.525
715.869	239.608
715.997	237.192
716.125	236.792
716.253	239.858
716.381	238.458
716.510	237.500
716.638	239.650
716.766	234.750
716.894	235.658
717.022	235.583
717.150	233.442
717.278	237.667
717.406	238.300
717.535	235.250
717.663	238.867
717.791	236.242
717.919	234.283
718.047	235.867
718.175	236.025
718.303	234.642
718.431	236.483
718.560	231.058
718.688	233.217
718.816	228.675
718.944	230.592
719.072	230.400
719.200	232.858
719.328	230.417
719.456	231.925
719.585	232.758
719.713	230.183
719.841	230.050
719.969	232.550
720.097	230.175
720.225	226.933
720.353	229.425
720.481	230.175
720.610	228.525
720.738	225.542
720.866	225.158
720.994	231.033
721.122	223.508
721.250	228.750
721.378	224.092
721.506	227.883
721.635	227.417
721.763	226.758
721.891	226.725
722.019	222.992
722.147	223.425
722.275	223.633
722.403	224.617
722.531	224.800
722.660	225.950
722.788	223.867
722.916	222.650
723.044	219.642
723.172	220.525
723.300	220.600
723.428	221.767
723.556	221.192
723.685	222.058
723.813	220.758
723.941	220.708
724.069	218.692
724.197	220.317
724.325	219.700
724.453	219.667
724.581	218.875
724.710	217.142
724.838	216.775
724.966	214.300
725.094	217.658
725.222	215.067
725.350	215.867
725.478	214.000
725.606	213.200
725.735	212.817
725.863	213.750
725.991	209.733
726.119	214.183
726.247	209.858
726.375	212.533
726.503	210.875
726.631	215.675
726.760	210.442
726.888	212.742
727.016	208.433
727.144	212.042
727.272	208.217
727.400	208.492
727.528	207.183
727.656	208.333
727.785	205.300
727.913	206.442
728.041	205.242
728.169	208.808
728.297	206.983
728.425	206.058
728.553	206.325
728.681	203.492
728.810	203.108
728.938	203.008
729.066	205.717
729.194	201.833
729.322	204.775
729.450	202.367
729.578	204.517
729.706	202.050
729.835	202.067
729.963	199.117
730.091	201.150
730.219	202.842
730.347	200.067
730.475	199.417
730.603	199.675
730.731	197.925
730.860	197.350
730.988	200.175
731.116	198.325
731.244	198.225
731.372	200.333
731.500	201.350
731.628	196.592
731.756	200.650
731.885	195.167
732.013	197.108
732.141	196.550
732.269	193.775
732.397	194.250
732.525	198.250
732.653	194.550
732.781	193.975
732.910	197.525
733.038	195.375
733.166	193.825
733.294	193.992
733.422	195.458
733.550	195.142
733.678	193.175
733.806	195.767
733.935	193.425
734.063	191.908
734.191	193.742
734.319	192.133
734.447	194.025
734.575	192.792
734.703	189.308
734.831	190.358
734.960	191.408
735.088	187.542
735.216	190.533
735.344	190.475
735.472	190.933
735.600	191.942
735.728	187.658
735.856	187.858
735.985	188.342
736.113	189.875
736.241	187.742
736.369	188.300
736.497	187.067
736.625	188.517
736.753	189.167
736.881	184.758
737.010	187.158
737.138	184.608
737.266	183.742
737.394	185.433
737.522	185.408
737.650	185.683
737.778	186.892
737.906	183.008
738.035	186.242
738.163	184.075
738.291	183.867
738.419	182.867
738.547	184.333
738.675	185.150
738.803	182.933
738.931	180.850
739.060	184.600
739.188	181.533
739.316	182.833
739.444	183.017
739.572	182.350
739.700	183.500
739.828	181.425
739.956	181.075
740.085	182.417
740.213	180.358
740.341	179.900
740.469	181.517
740.597	180.317
740.725	182.983
740.853	181.950
740.981	182.108
741.110	177.833
741.238	181.433
741.366	179.117
741.494	179.842
741.622	177.433
741.750	178.467
741.878	179.933
742.006	178.817
742.135	176.692
742.263	177.950
742.391	173.125
742.519	178.008
742.647	179.442
742.775	181.192
742.903	177.317
743.031	176.867
743.160	177.825
743.288	174.200
743.416	176.050
743.544	174.292
743.672	175.358
743.800	178.200
743.928	177.267
744.056	174.700
744.185	175.742
744.313	176.592
744.441	175.783
744.569	173.617
744.697	175.292
744.825	175.850
744.953	173.700
745.081	173.725
745.210	175.817
745.338	176.375
745.466	173.350
745.594	175.425
745.722	173.808
745.850	173.358
745.978	173.567
746.106	175.725
746.235	172.442
746.363	173.958
746.491	171.258
746.619	170.450
746.747	170.608
746.875	172.717
747.003	171.992
747.131	172.000
747.260	168.950
747.388	171.442
747.516	172.842
747.644	169.792
747.772	170.950
747.900	168.358
748.028	166.775
748.156	168.617
748.285	170.075
748.413	170.333
748.541	169.267
748.669	168.150
748.797	169.550
748.925	167.225
749.053	166.883
749.181	166.925
749.310	167.142
749.438	166.883
749.566	165.533
749.694	168.383
749.822	165.917
749.950	166.667
750.078	168.000
750.206	165.050
750.335	165.783
750.463	166.592
750.591	165.075
750.719	166.358
750.847	164.242
750.975	164.250
751.103	161.617
751.231	161.508
751.360	164.400
751.488	163.067
751.616	161.192
751.744	162.542
751.872	159.633
752.000	160.825
752.128	160.008
752.256	162.950
752.385	161.433
752.513	160.942
752.641	158.967
752.769	159.750
752.897	162.575
753.025	155.692
753.153	158.383
753.281	159.717
753.410	157.783
753.538	156.533
753.666	162.400
753.794	158.133
753.922	160.708
754.050	155.833
754.178	158.042
754.306	157.117
754.435	155.133
754.563	155.650
754.691	156.933
754.819	155.100
754.947	156.833
755.075	156.742
755.203	157.575
755.331	155.383
755.460	156.292
755.588	156.408
755.716	154.925
755.844	155.458
755.972	154.992
756.100	153.258
756.228	154.683
756.356	153.942
756.485	151.025
756.613	154.633
756.741	152.342
756.869	154.992
756.997	155.158
757.125	155.817
757.253	153.408
757.381	152.108
757.510	152.342
757.638	152.225
757.766	154.467
757.894	152.983
758.022	151.333
758.150	152.567
758.278	152.208
758.406	149.450
758.535	152.392
758.663	151.167
758.791	153.008
758.919	150.317
759.047	150.767
759.175	152.733
759.303	150.475
759.431	149.850
759.560	147.892
759.688	151.467
759.816	152.383
759.944	150.650
760.072	150.017
760.200	147.642
760.328	150.708
760.456	151.092
760.585	149.242
760.713	150.275
760.841	145.383
760.969	148.950
761.097	149.558
761.225	147.067
761.353	147.708
761.481	149.533
761.610	149.042
761.738	146.208
761.866	147.300
761.994	147.475
762.122	147.342
762.250	149.608
762.378	145.042
762.506	145.725
762.635	146.058
762.763	147.992
762.891	148.492
763.019	144.942
763.147	145.158
763.275	145.867
763.403	145.483
763.531	142.033
763.660	145.842
763.788	145.933
763.916	145.242
764.044	144.350
764.172	147.442
764.300	143.283
764.428	143.700
764.556	145.917
764.685	143.192
764.813	143.233
764.941	143.650
765.069	143.442
765.197	146.908
765.325	142.967
765.453	143.042
765.581	145.075
765.710	144.092
765.838	144.767
765.966	142.125
766.094	142.992
766.222	144.150
766.350	142.058
766.478	142.692
766.606	142.358
766.735	142.517
766.863	141.900
766.991	140.758
767.119	140.942
767.247	142.083
767.375	142.275
767.503	140.350
767.631	140.933
767.760	141.450
767.888	138.833
768.016	140.617
768.144	141.925
768.272	142.667
768.400	138.350
768.528	140.217
768.656	140.767
768.785	142.017
768.913	141.400
769.041	140.233
769.169	138.242
769.297	142.167
769.425	140.350
769.553	139.850
769.681	139.117
769.810	140.975
769.938	140.600
770.066	139.383
770.194	136.792
770.322	138.792
770.450	140.225
770.578	140.267
770.706	140.592
770.835	137.558
770.963	138.833
771.091	138.000
771.219	137.175
771.347	139.483
771.475	137.950
771.603	138.117
771.731	138.808
771.860	137.608
771.988	137.158
772.116	137.992
772.244	137.575
772.372	138.667
772.500	140.042
772.628	139.517
772.756	136.192
772.885	137.925
773.013	138.783
773.141	137.142
773.269	136.658
773.397	136.858
773.525	138.692
773.653	139.500
773.781	135.283
773.910	139.283
774.038	136.683
774.166	136.308
774.294	137.025
774.422	134.825
774.550	134.892
774.678	136.708
774.806	136.250
774.935	134.658
775.063	137.250
775.191	137.750
775.319	136.658
775.447	137.317
775.575	133.625
775.703	136.083
775.831	135.592
775.960	134.650
776.088	133.675
776.216	134.100
776.344	136.317
776.472	135.858
776.600	136.008
776.728	133.550
776.856	134.075
776.985	134.158
777.113	134.592
777.241	133.850
777.369	134.000
777.497	130.592
777.625	132.100
777.753	132.708
777.881	132.633
778.010	132.575
778.138	132.250
778.266	130.783
778.394	133.142
778.522	132.250
778.650	133.233
778.778	130.800
778.906	131.475
779.035	134.342
779.163	132.175
779.291	131.983
779.419	132.308
779.547	133.017
779.675	133.725
779.803	132.408
779.931	130.675
780.060	132.767
780.188	130.558
780.316	130.800
780.444	133.592
780.572	130.683
780.700	130.533
780.828	130.208
780.956	132.075
781.085	131.042
781.213	130.192
781.341	130.633
781.469	129.592
781.597	130.083
781.725	130.400
781.853	130.692
781.981	130.258
782.110	132.042
782.238	128.200
782.366	130.267
782.494	130.083
782.622	129.808
782.750	130.983
782.878	130.467
783.006	129.642
783.135	127.417
783.263	126.850
783.391	127.675
783.519	127.033
783.647	127.125
783.775	127.892
783.903	129.167
784.031	126.458
784.160	128.192
784.288	127.450
784.416	127.758
784.544	126.492
784.672	127.175
784.800	126.967
784.928	125.242
785.056	126.033
785.185	126.650
785.313	125.458
785.441	124.917
785.569	125.958
785.697	127.925
785.825	124.692
785.953	125.233
786.081	125.033
786.210	126.833
786.338	124.917
786.466	125.092
786.594	127.167
786.722	126.400
786.850	125.625
786.978	123.675
787.106	124.033
787.235	123.658
787.363	125.892
787.491	124.267
787.619	123.425
787.747	123.850
787.875	123.742
788.003	121.717
788.131	122.733
788.260	124.300
788.388	124.008
788.516	123.392
788.644	124.600
788.772	122.733
788.900	123.533
789.028	121.850
789.156	124.500
789.285	122.092
789.413	122.000
789.541	124.167
789.669	124.150
789.797	121.525
789.925	123.392
790.053	122.967
790.181	121.992
790.310	121.242
790.438	121.192
790.566	121.633
790.694	120.875
790.822	122.842
790.950	121.567
791.078	120.975
791.206	120.758
791.335	122.592
791.463	121.167
791.591	121.025
791.719	122.467
791.847	119.500
791.975	119.667
792.103	119.408
792.231	121.083
792.360	121.208
792.488	120.242
792.616	120.925
792.744	119.767
792.872	119.950
793.000	121.475
793.128	119.442
793.256	119.175
793.385	118.667
793.513	119.450
793.641	120.100
793.769	120.017
793.897	118.558
794.025	120.200
794.153	119.267
794.281	120.592
794.410	119.183
794.538	119.617
794.666	120.158
794.794	119.075
794.922	120.000
795.050	119.558
795.178	118.183
795.306	119.417
795.435	118.575
795.563	118.808
795.691	117.567
795.819	117.625
795.947	118.575
796.075	118.908
796.203	117.667
796.331	117.317
796.460	117.425
796.588	119.583
796.716	117.292
796.844	117.783
796.972	118.717
797.100	118.058
797.228	117.967
797.356	119.192
797.485	117.808
797.613	116.950
797.741	116.525
797.869	117.633
797.997	117.992
798.125	116.883
798.253	117.842
798.381	115.567
798.510	116.583
798.638	115.783
798.766	115.558
798.894	116.642
799.022	116.767
799.150	116.167
799.278	116.908
799.406	117.000
799.535	116.633
799.663	117.017
799.791	116.642
799.919	116.083
800.047	116.392
800.175	116.983
800.303	116.508
800.431	115.608
800.560	115.383
800.688	116.625
800.816	115.033
800.944	115.050
801.072	115.858
801.200	115.117
801.328	114.275
801.456	115.317
801.585	115.092
801.713	115.367
801.841	115.358
801.969	115.483
802.097	115.517
802.225	114.450
802.353	114.925
802.481	114.033
802.610	115.183
802.738	114.042
802.866	113.750
802.994	115.892
803.122	114.758
803.250	114.733
803.378	115.100
803.506	114.825
803.635	114.600
803.763	113.733
803.891	114.058
804.019	113.392
804.147	113.542
804.275	113.683
804.403	113.458
804.531	112.717
804.660	113.083
804.788	113.592
804.916	112.633
805.044	112.908
805.172	113.258
805.300	112.417
805.428	113.125
805.556	113.217
805.685	114.217
805.813	115.117
805.941	113.083
806.069	113.842
806.197	113.808
806.325	111.858
806.453	113.550
806.581	112.717
806.710	112.967
806.838	111.850
806.966	113.300
807.094	112.700
807.222	113.083
807.350	113.133
807.478	112.433
807.606	112.983
807.735	111.633
807.863	112.217
807.991	112.158
808.119	111.533
808.247	112.242
808.375	111.908
808.503	111.783
808.631	112.892
808.760	111.317
808.888	111.558
809.016	112.458
809.144	112.600
809.272	112.883
809.400	113.317
809.528	111.192
809.656	111.175
809.785	110.775
809.913	111.242
810.041	111.275
810.169	110.258
810.297	110.908
810.425	111.683
810.553	109.575
810.681	111.775
810.810	111.383
810.938	111.100
811.066	110.158
811.194	110.333
811.322	110.408
811.450	111.108
811.578	110.925
811.706	111.333
811.835	111.483
811.963	110.125
812.091	111.150
812.219	111.300
812.347	110.867
812.475	110.933
812.603	111.383
812.731	110.033
812.860	110.458
812.988	110.533
813.116	110.217
813.244	111.342
813.372	110.883
813.500	110.800
813.628	111.717
813.756	110.033
813.885	110.700
814.013	110.575
814.141	110.242
814.269	109.292
814.397	109.783
814.525	110.133
814.653	110.375
814.781	109.508
814.910	109.950
815.038	110.050
815.166	110.150
815.294	108.942
815.422	110.067
815.550	109.825
815.678	109.442
815.806	109.292
815.935	108.892
816.063	109.017
816.191	109.475
816.319	110.225
816.447	109.433
816.575	109.775
816.703	108.983
816.831	109.650
816.960	110.100
817.088	109.975
817.216	109.692
817.344	109.742
817.472	110.483
817.600	109.467
817.728	109.542
817.856	109.350
817.985	108.125
818.113	109.992
818.241	108.533
818.369	108.517
818.497	109.117
818.625	109.200
818.753	108.358
818.881	109.775
819.010	108.742
819.138	109.033
819.266	108.875
819.394	108.217
819.522	108.592
819.650	109.425
819.778	108.125
819.906	108.425
820.035	108.325
820.163	108.917
820.291	108.150
820.419	108.058
820.547	108.675
820.675	107.517
820.803	108.775
820.931	108.233
821.060	106.550
821.188	108.842
821.316	108.100
821.444	109.208
821.572	108.775
821.700	108.508
821.828	108.917
821.956	107.858
822.085	108.058
822.213	109.058
822.341	108.475
822.469	108.392
822.597	107.867
822.725	107.425
822.853	106.875
822.981	107.450
823.110	108.575
823.238	106.850
823.366	107.800
823.494	106.725
823.622	106.575
823.750	107.875
823.878	106.717
824.006	109.100
824.135	108.042
824.263	108.033
824.391	107.042
824.519	108.567
824.647	108.708
824.775	108.633
824.903	108.875
825.031	109.008
825.160	108.042
825.288	108.158
825.416	108.050
825.544	108.117
825.672	108.108
825.800	108.050
825.928	107.833
826.056	108.492
826.185	107.417
826.313	107.567
826.441	107.358
826.569	107.392
826.697	107.250
826.825	106.925
826.953	106.933
827.081	105.858
827.210	106.775
827.338	106.417
827.466	106.658
827.594	107.442
827.722	107.575
827.850	107.258
827.978	106.575
828.106	106.908
828.235	108.275
828.363	107.300
828.491	107.283
828.619	106.500
828.747	106.608
828.875	106.892
829.003	107.675
829.131	107.033
829.260	107.892
829.388	106.625
829.516	107.383
829.644	107.275
829.772	107.525
829.900	106.892
830.028	107.150
830.156	106.633
830.285	106.467
830.413	106.933
830.541	107.133
830.669	107.033
830.797	105.875
830.925	106.633
831.053	105.833
831.181	106.550
831.310	107.425
831.438	107.592
831.566	105.967
831.694	106.450
831.822	105.033
831.950	107.367
832.078	106.150
832.206	107.158
832.335	105.625
832.463	107.692
832.591	106.025
832.719	105.917
832.847	105.858
832.975	105.508
833.103	106.242
833.231	107.092
833.360	106.825
833.488	106.333
833.616	105.658
833.744	104.908
833.872	106.592
834.000	107.367
834.128	106.608
834.256	106.067
834.385	106.442
834.513	107.475
834.641	104.308
834.769	104.892
834.897	106.317
835.025	105.292
835.153	104.608
835.281	104.975
835.410	106.283
835.538	105.617
835.666	105.542
835.794	105.150
835.922	106.917
836.050	105.908
836.178	105.917
836.306	106.017
836.435	105.575
836.563	105.542
836.691	106.025
836.819	106.917
836.947	104.900
837.075	105.808
837.203	105.025
837.331	105.658
837.460	105.525
837.588	105.475
837.716	105.792
837.844	105.967
837.972	106.000
838.100	105.200
838.228	105.658
838.356	104.892
838.485	104.058
838.613	105.167
838.741	106.342
838.869	105.667
838.997	105.725
839.125	104.658
839.253	105.392
839.381	106.783
839.510	105.342
839.638	105.000
839.766	104.917
839.894	105.092
840.022	105.650
840.150	105.808
840.278	104.517
840.406	105.508
840.535	105.517
840.663	105.042
840.791	104.908
840.919	105.550
841.047	104.583
841.175	104.817
841.303	104.992
841.431	104.983
841.560	104.758
841.688	104.450
841.816	104.558
841.944	104.817
842.072	105.333
842.200	105.417
842.328	105.608
842.456	105.533
842.585	105.983
842.713	104.958
842.841	104.475
842.969	105.350
843.097	105.075
843.225	105.200
843.353	104.975
843.481	103.892
843.610	104.875
843.738	104.008
843.866	104.133
