90-70-unpol_at_679.99nm_cut_at_1276.00Y_01.dat
24.01.2024
13:25:20
cut middle at Y: 1276.00
top cursor: 1337 down cursor: 1215 mean of: 122 lines , 2560 datapoints
wavelength(nm)	intensity[arb. units]
515.994	1261.467
516.122	1189.279
516.250	1172.295
516.378	1165.066
516.506	1162.795
516.635	1177.664
516.763	1168.869
516.891	1179.148
517.019	1183.402
517.147	1180.787
517.275	1186.541
517.403	1192.115
517.531	1167.631
517.660	1183.090
517.788	1176.484
517.916	1187.066
518.044	1170.541
518.172	1189.213
518.300	1193.713
518.428	1179.066
518.556	1185.041
518.685	1185.434
518.813	1192.877
518.941	1192.025
519.069	1194.016
519.197	1188.615
519.325	1201.451
519.453	1195.951
519.581	1213.156
519.710	1202.303
519.838	1208.656
519.966	1212.475
520.094	1213.852
520.222	1214.254
520.350	1218.287
520.478	1224.123
520.606	1225.016
520.735	1218.910
520.863	1235.582
520.991	1240.180
521.119	1237.746
521.247	1244.951
521.375	1242.090
521.503	1253.443
521.631	1249.811
521.760	1260.926
521.888	1246.426
522.016	1256.861
522.144	1254.213
522.272	1266.418
522.400	1277.861
522.528	1289.992
522.656	1282.049
522.785	1289.484
522.913	1280.057
523.041	1278.926
523.169	1282.164
523.297	1282.951
523.425	1289.148
523.553	1295.328
523.681	1299.680
523.810	1297.951
523.938	1308.844
524.066	1294.393
524.194	1302.344
524.322	1309.090
524.450	1309.852
524.578	1294.139
524.706	1309.803
524.835	1302.377
524.963	1304.795
525.091	1306.303
525.219	1302.172
525.347	1292.139
525.475	1305.746
525.603	1303.836
525.731	1317.828
525.860	1312.254
525.988	1292.689
526.116	1304.107
526.244	1308.844
526.372	1296.107
526.500	1306.844
526.628	1318.115
526.756	1312.352
526.885	1311.680
527.013	1309.139
527.141	1315.344
527.269	1314.893
527.397	1313.549
527.525	1315.352
527.653	1308.025
527.781	1313.180
527.910	1326.623
528.038	1324.508
528.166	1337.057
528.294	1330.451
528.422	1329.779
528.550	1326.680
528.678	1336.418
528.806	1330.074
528.935	1344.303
529.063	1334.721
529.191	1342.385
529.319	1339.795
529.447	1352.189
529.575	1346.680
529.703	1343.344
529.831	1356.172
529.960	1350.811
530.088	1346.918
530.216	1368.820
530.344	1342.238
530.472	1366.533
530.600	1363.107
530.728	1367.541
530.856	1367.197
530.985	1377.311
531.113	1362.418
531.241	1368.549
531.369	1385.623
531.497	1376.328
531.625	1365.213
531.753	1372.787
531.881	1390.861
532.010	1384.385
532.138	1377.549
532.266	1378.287
532.394	1376.246
532.522	1358.180
532.650	1368.828
532.778	1374.951
532.906	1359.607
533.035	1375.811
533.163	1361.844
533.291	1347.770
533.419	1357.516
533.547	1360.713
533.675	1369.205
533.803	1357.369
533.931	1360.787
534.060	1366.033
534.188	1361.721
534.316	1367.574
534.444	1362.205
534.572	1371.287
534.700	1371.418
534.828	1355.738
534.956	1364.320
535.085	1375.467
535.213	1380.885
535.341	1384.656
535.469	1380.885
535.597	1377.164
535.725	1396.443
535.853	1398.689
535.981	1389.393
536.110	1402.926
536.238	1405.434
536.366	1395.615
536.494	1398.197
536.622	1414.066
536.750	1415.770
536.878	1424.402
537.006	1420.844
537.135	1438.639
537.263	1427.803
537.391	1435.328
537.519	1432.984
537.647	1436.664
537.775	1448.623
537.903	1448.033
538.031	1440.943
538.160	1457.566
538.288	1449.295
538.416	1464.230
538.544	1452.123
538.672	1453.787
538.800	1456.967
538.928	1467.484
539.056	1484.689
539.185	1471.516
539.313	1473.369
539.441	1481.328
539.569	1480.213
539.697	1470.811
539.825	1478.287
539.953	1486.025
540.081	1471.213
540.210	1482.689
540.338	1473.631
540.466	1481.393
540.594	1494.541
540.722	1479.877
540.850	1488.598
540.978	1486.705
541.106	1491.516
541.235	1500.057
541.363	1476.049
541.491	1484.123
541.619	1486.434
541.747	1492.443
541.875	1505.172
542.003	1495.098
542.131	1509.443
542.260	1503.385
542.388	1497.082
542.516	1495.426
542.644	1500.443
542.772	1491.754
542.900	1503.230
543.028	1499.574
543.156	1512.877
543.285	1509.475
543.413	1498.230
543.541	1510.148
543.669	1510.369
543.797	1524.820
543.925	1512.500
544.053	1511.787
544.181	1518.959
544.310	1522.098
544.438	1519.123
544.566	1536.730
544.694	1518.467
544.822	1524.869
544.950	1533.393
545.078	1519.959
545.206	1525.607
545.335	1535.328
545.463	1531.795
545.591	1530.098
545.719	1529.582
545.847	1528.254
545.975	1527.238
546.103	1534.467
546.231	1537.443
546.360	1531.189
546.488	1543.238
546.616	1531.951
546.744	1557.615
546.872	1532.090
547.000	1534.738
547.128	1537.770
547.256	1541.385
547.385	1531.549
547.513	1532.410
547.641	1548.320
547.769	1559.508
547.897	1538.533
548.025	1549.648
548.153	1550.836
548.281	1555.197
548.410	1554.336
548.538	1554.025
548.666	1549.615
548.794	1545.139
548.922	1550.475
549.050	1569.000
549.178	1566.213
549.306	1565.828
549.435	1567.246
549.563	1567.016
549.691	1560.852
549.819	1575.738
549.947	1571.746
550.075	1563.320
550.203	1561.566
550.331	1573.303
550.460	1563.713
550.588	1562.525
550.716	1583.410
550.844	1567.918
550.972	1563.066
551.100	1573.262
551.228	1571.393
551.356	1572.836
551.485	1572.721
551.613	1563.975
551.741	1555.025
551.869	1555.213
551.997	1556.164
552.125	1560.516
552.253	1558.156
552.381	1543.721
552.510	1545.402
552.638	1553.639
552.766	1549.205
552.894	1548.664
553.022	1540.746
553.150	1536.811
553.278	1546.574
553.406	1548.279
553.535	1533.246
553.663	1531.975
553.791	1534.836
553.919	1535.689
554.047	1530.189
554.175	1528.131
554.303	1523.713
554.431	1524.344
554.560	1525.852
554.688	1537.361
554.816	1526.098
554.944	1530.926
555.072	1533.393
555.200	1541.689
555.328	1533.902
555.456	1542.098
555.585	1531.697
555.713	1532.631
555.841	1547.221
555.969	1535.623
556.097	1542.434
556.225	1553.705
556.353	1544.123
556.481	1541.992
556.610	1550.656
556.738	1562.385
556.866	1560.721
556.994	1556.303
557.122	1562.057
557.250	1560.590
557.378	1566.066
557.506	1571.328
557.635	1563.967
557.763	1565.607
557.891	1584.844
558.019	1573.049
558.147	1577.861
558.275	1583.951
558.403	1578.344
558.531	1574.877
558.660	1590.041
558.788	1587.295
558.916	1586.475
559.044	1580.164
559.172	1586.770
559.300	1590.902
559.428	1592.967
559.556	1579.295
559.685	1599.443
559.813	1596.787
559.941	1606.197
560.069	1603.689
560.197	1598.197
560.325	1603.779
560.453	1598.943
560.581	1618.180
560.710	1604.984
560.838	1594.754
560.966	1603.697
561.094	1612.623
561.222	1596.025
561.350	1606.861
561.478	1597.344
561.606	1597.664
561.735	1599.549
561.863	1609.705
561.991	1603.918
562.119	1593.557
562.247	1604.164
562.375	1599.377
562.503	1592.877
562.631	1603.066
562.760	1601.738
562.888	1601.779
563.016	1594.418
563.144	1599.418
563.272	1587.975
563.400	1584.762
563.528	1591.484
563.656	1603.107
563.785	1591.164
563.913	1591.066
564.041	1590.566
564.169	1585.533
564.297	1595.746
564.425	1591.279
564.553	1609.615
564.681	1598.918
564.810	1596.467
564.938	1597.877
565.066	1590.221
565.194	1611.418
565.322	1613.508
565.450	1612.705
565.578	1625.230
565.706	1595.090
565.835	1617.057
565.963	1608.369
566.091	1606.680
566.219	1627.385
566.347	1627.680
566.475	1616.557
566.603	1619.730
566.731	1624.877
566.860	1630.205
566.988	1629.516
567.116	1639.697
567.244	1623.582
567.372	1648.582
567.500	1646.189
567.628	1647.254
567.756	1647.967
567.885	1644.139
568.013	1674.131
568.141	1652.877
568.269	1659.877
568.397	1669.566
568.525	1652.975
568.653	1676.230
568.781	1670.623
568.910	1693.410
569.038	1688.975
569.166	1678.705
569.294	1685.492
569.422	1689.877
569.550	1689.713
569.678	1699.287
569.806	1709.656
569.935	1711.057
570.063	1714.549
570.191	1712.074
570.319	1718.148
570.447	1715.361
570.575	1710.951
570.703	1722.303
570.831	1725.738
570.960	1731.738
571.088	1742.303
571.216	1725.016
571.344	1734.525
571.472	1738.787
571.600	1738.516
571.728	1741.197
571.856	1734.713
571.985	1746.631
572.113	1757.762
572.241	1760.377
572.369	1766.221
572.497	1753.213
572.625	1769.508
572.753	1767.443
572.881	1770.230
573.010	1768.926
573.138	1782.910
573.266	1780.254
573.394	1772.213
573.522	1772.344
573.650	1791.525
573.778	1782.057
573.906	1773.918
574.035	1790.000
574.163	1794.221
574.291	1804.623
574.419	1798.377
574.547	1801.730
574.675	1805.500
574.803	1803.770
574.931	1790.910
575.060	1817.074
575.188	1822.893
575.316	1813.459
575.444	1803.057
575.572	1810.016
575.700	1813.303
575.828	1820.746
575.956	1824.180
576.085	1800.811
576.213	1828.959
576.341	1817.574
576.469	1825.230
576.597	1815.557
576.725	1816.484
576.853	1819.492
576.981	1812.910
577.110	1821.861
577.238	1836.336
577.366	1818.689
577.494	1811.934
577.622	1813.369
577.750	1808.328
577.878	1821.566
578.006	1834.418
578.135	1825.451
578.263	1834.959
578.391	1835.459
578.519	1834.811
578.647	1832.016
578.775	1830.230
578.903	1822.336
579.031	1852.254
579.160	1835.369
579.288	1821.451
579.416	1835.016
579.544	1854.492
579.672	1833.803
579.800	1851.205
579.928	1827.107
580.056	1831.803
580.185	1829.172
580.313	1840.057
580.441	1852.164
580.569	1838.869
580.697	1841.082
580.825	1866.746
580.953	1874.254
581.081	1873.197
581.210	1863.697
581.338	1875.590
581.466	1880.984
581.594	1885.033
581.722	1870.082
581.850	1880.705
581.978	1889.992
582.106	1885.607
582.235	1904.377
582.363	1890.779
582.491	1901.902
582.619	1903.926
582.747	1912.451
582.875	1899.369
583.003	1924.156
583.131	1933.811
583.260	1929.533
583.388	1936.279
583.516	1944.074
583.644	1945.352
583.772	1942.402
583.900	1967.492
584.028	1981.877
584.156	1960.541
584.285	1972.984
584.413	1976.533
584.541	1980.689
584.669	1988.689
584.797	2002.025
584.925	1992.246
585.053	1995.459
585.181	2006.230
585.310	2006.967
585.438	2018.754
585.566	2036.549
585.694	2045.213
585.822	2039.393
585.950	2037.221
586.078	2052.885
586.206	2045.598
586.335	2064.098
586.463	2072.713
586.591	2081.549
586.719	2070.779
586.847	2083.172
586.975	2104.344
587.103	2093.910
587.231	2087.574
587.360	2097.025
587.488	2096.246
587.616	2105.967
587.744	2126.164
587.872	2107.213
588.000	2119.123
588.128	2121.279
588.256	2125.943
588.385	2119.934
588.513	2112.336
588.641	2130.254
588.769	2157.311
588.897	2129.066
589.025	2132.287
589.153	2127.967
589.281	2138.295
589.410	2155.795
589.538	2148.057
589.666	2156.934
589.794	2157.459
589.922	2158.115
590.050	2168.025
590.178	2150.295
590.306	2152.828
590.435	2166.361
590.563	2157.139
590.691	2166.139
590.819	2161.352
590.947	2188.730
591.075	2165.410
591.203	2177.451
591.331	2174.902
591.460	2175.230
591.588	2187.943
591.716	2181.336
591.844	2187.418
591.972	2203.279
592.100	2186.139
592.228	2187.057
592.356	2190.139
592.485	2186.525
592.613	2182.787
592.741	2216.705
592.869	2206.680
592.997	2211.287
593.125	2219.713
593.253	2227.426
593.381	2235.721
593.510	2237.738
593.638	2240.992
593.766	2229.508
593.894	2232.648
594.022	2244.893
594.150	2260.500
594.278	2271.475
594.406	2257.516
594.535	2259.180
594.663	2273.672
594.791	2243.279
594.919	2269.508
595.047	2278.762
595.175	2298.172
595.303	2280.328
595.431	2289.770
595.560	2298.500
595.688	2297.008
595.816	2294.410
595.944	2307.549
596.072	2315.885
596.200	2314.533
596.328	2321.025
596.456	2312.516
596.585	2320.164
596.713	2328.115
596.841	2338.943
596.969	2342.967
597.097	2340.295
597.225	2359.426
597.353	2370.287
597.481	2354.803
597.610	2356.598
597.738	2375.664
597.866	2371.648
597.994	2379.779
598.122	2401.664
598.250	2398.926
598.378	2374.992
598.506	2387.738
598.635	2384.467
598.763	2406.549
598.891	2412.057
599.019	2419.131
599.147	2406.541
599.275	2399.672
599.403	2425.582
599.531	2426.451
599.660	2443.238
599.788	2435.697
599.916	2434.877
600.044	2462.246
600.172	2455.320
600.300	2452.770
600.428	2441.254
600.556	2451.828
600.685	2486.803
600.813	2468.484
600.941	2487.689
601.069	2465.631
601.197	2504.459
601.325	2487.672
601.453	2483.131
601.581	2494.008
601.710	2505.402
601.838	2530.139
601.966	2541.377
602.094	2530.336
602.222	2526.869
602.350	2508.672
602.478	2517.361
602.606	2549.926
602.735	2520.623
602.863	2566.648
602.991	2563.893
603.119	2559.869
603.247	2558.230
603.375	2571.721
603.503	2575.803
603.631	2595.697
603.760	2593.738
603.888	2602.926
604.016	2600.090
604.144	2598.189
604.272	2615.467
604.400	2634.877
604.528	2612.418
604.656	2640.410
604.785	2639.557
604.913	2661.074
605.041	2624.189
605.169	2673.787
605.297	2644.410
605.425	2657.320
605.553	2677.951
605.681	2653.008
605.810	2678.352
605.938	2678.369
606.066	2658.967
606.194	2692.525
606.322	2673.926
606.450	2700.803
606.578	2674.746
606.706	2701.434
606.835	2716.664
606.963	2722.156
607.091	2733.762
607.219	2711.459
607.347	2700.156
607.475	2727.025
607.603	2729.377
607.731	2693.631
607.860	2716.410
607.988	2724.221
608.116	2746.467
608.244	2722.803
608.372	2739.795
608.500	2729.205
608.628	2706.910
608.756	2737.656
608.885	2768.180
609.013	2726.254
609.141	2704.287
609.269	2719.705
609.397	2720.270
609.525	2740.803
609.653	2734.844
609.781	2722.361
609.910	2735.090
610.038	2777.533
610.166	2738.369
610.294	2732.254
610.422	2746.205
610.550	2732.426
610.678	2730.779
610.806	2747.377
610.935	2726.131
611.063	2728.189
611.191	2742.525
611.319	2745.074
611.447	2726.762
611.575	2728.123
611.703	2720.574
611.831	2737.385
611.960	2726.689
612.088	2738.934
612.216	2728.443
612.344	2730.787
612.472	2739.033
612.600	2729.000
612.728	2725.885
612.856	2706.893
612.985	2721.443
613.113	2737.131
613.241	2756.705
613.369	2725.410
613.497	2736.443
613.625	2735.148
613.753	2738.689
613.881	2725.270
614.010	2705.836
614.138	2735.566
614.266	2742.066
614.394	2749.984
614.522	2741.230
614.650	2735.311
614.778	2732.664
614.906	2738.516
615.035	2750.598
615.163	2726.213
615.291	2753.426
615.419	2726.992
615.547	2725.598
615.675	2745.795
615.803	2778.008
615.931	2764.934
616.060	2756.336
616.188	2758.795
616.316	2764.262
616.444	2744.582
616.572	2751.410
616.700	2782.402
616.828	2765.730
616.956	2787.107
617.085	2781.721
617.213	2759.951
617.341	2766.984
617.469	2846.492
617.597	2767.885
617.725	2763.377
617.853	2765.393
617.981	2787.820
618.110	2817.598
618.238	2806.590
618.366	2795.098
618.494	2795.541
618.622	2796.492
618.750	2846.385
618.878	2826.492
619.006	2830.189
619.135	2854.852
619.263	2823.902
619.391	2830.746
619.519	2830.598
619.647	2866.393
619.775	2847.262
619.903	2851.697
620.031	2821.607
620.160	2844.730
620.288	2858.238
620.416	2871.918
620.544	2870.566
620.672	2872.180
620.800	2875.049
620.928	2875.221
621.056	2927.197
621.185	2880.975
621.313	2865.836
621.441	2892.861
621.569	2888.156
621.697	2903.082
621.825	2909.844
621.953	2881.115
622.081	2919.623
622.210	2890.205
622.338	2914.451
622.466	2917.164
622.594	2919.508
622.722	2904.508
622.850	2934.246
622.978	2965.295
623.106	2947.443
623.235	2940.426
623.363	2946.418
623.491	2933.828
623.619	2966.893
623.747	2936.139
623.875	2973.148
624.003	2911.189
624.131	2956.844
624.260	2959.762
624.388	2934.443
624.516	2949.475
624.644	2938.074
624.772	2942.508
624.900	2929.443
625.028	2931.041
625.156	2926.697
625.285	2963.115
625.413	2958.484
625.541	2948.451
625.669	2960.541
625.797	2957.697
625.925	2936.902
626.053	2933.418
626.181	2917.303
626.310	2989.820
626.438	2925.820
626.566	2934.934
626.694	2930.795
626.822	2928.139
626.950	2943.893
627.078	2923.311
627.206	2929.828
627.335	2941.164
627.463	2922.828
627.591	2937.311
627.719	2956.820
627.847	2929.475
627.975	2939.205
628.103	2939.656
628.231	2937.803
628.360	2924.402
628.488	2911.459
628.616	2920.238
628.744	2910.303
628.872	2925.148
629.000	2924.287
629.128	2916.730
629.256	2894.828
629.385	2884.984
629.513	2881.508
629.641	2911.426
629.769	2933.861
629.897	2925.598
630.025	2902.270
630.153	2937.910
630.281	2898.213
630.410	2904.541
630.538	2897.131
630.666	2901.320
630.794	2889.385
630.922	2909.525
631.050	2888.041
631.178	2899.943
631.306	2881.082
631.435	2886.041
631.563	2901.443
631.691	2909.139
631.819	2931.721
631.947	2883.746
632.075	2860.467
632.203	2895.402
632.331	2859.967
632.460	2866.090
632.588	2869.049
632.716	2858.738
632.844	2896.402
632.972	2838.656
633.100	2836.672
633.228	2863.885
633.356	2848.131
633.485	2869.016
633.613	2869.221
633.741	2844.738
633.869	2833.975
633.997	2837.893
634.125	2886.385
634.253	2833.566
634.381	2835.672
634.510	2845.623
634.638	2820.705
634.766	2880.164
634.894	2822.230
635.022	2819.738
635.150	2806.000
635.278	2826.180
635.406	2808.918
635.535	2801.762
635.663	2814.180
635.791	2772.049
635.919	2799.861
636.047	2800.246
636.175	2784.508
636.303	2785.000
636.431	2793.549
636.560	2791.689
636.688	2768.098
636.816	2784.803
636.944	2760.377
637.072	2789.246
637.200	2766.238
637.328	2764.852
637.456	2759.631
637.585	2754.541
637.713	2770.279
637.841	2738.082
637.969	2755.877
638.097	2737.320
638.225	2749.303
638.353	2738.295
638.481	2737.648
638.610	2758.877
638.738	2747.213
638.866	2724.246
638.994	2742.525
639.122	2724.057
639.250	2711.189
639.378	2762.074
639.506	2727.090
639.635	2741.041
639.763	2704.664
639.891	2726.107
640.019	2742.156
640.147	2749.623
640.275	2702.295
640.403	2687.779
640.531	2734.918
640.660	2711.770
640.788	2758.311
640.916	2707.557
641.044	2727.721
641.172	2709.549
641.300	2710.131
641.428	2714.508
641.556	2718.279
641.685	2699.402
641.813	2683.574
641.941	2704.549
642.069	2708.492
642.197	2728.008
642.325	2703.664
642.453	2687.492
642.581	2738.705
642.710	2682.762
642.838	2707.566
642.966	2683.230
643.094	2692.926
643.222	2669.033
643.350	2685.590
643.478	2712.902
643.606	2691.426
643.735	2647.295
643.863	2676.918
643.991	2682.295
644.119	2673.869
644.247	2676.139
644.375	2655.623
644.503	2674.434
644.631	2684.516
644.760	2672.762
644.888	2686.557
645.016	2670.459
645.144	2660.992
645.272	2650.287
645.400	2678.836
645.528	2674.484
645.656	2639.352
645.785	2657.590
645.913	2684.770
646.041	2662.631
646.169	2666.664
646.297	2640.730
646.425	2648.623
646.553	2628.574
646.681	2618.238
646.810	2627.303
646.938	2630.025
647.066	2608.156
647.194	2641.779
647.322	2608.164
647.450	2591.361
647.578	2607.443
647.706	2589.000
647.835	2598.164
647.963	2611.820
648.091	2578.787
648.219	2600.287
648.347	2589.607
648.475	2585.369
648.603	2574.484
648.731	2565.951
648.860	2547.238
648.988	2546.689
649.116	2541.557
649.244	2522.377
649.372	2527.869
649.500	2536.492
649.628	2542.910
649.756	2520.123
649.885	2496.566
650.013	2485.352
650.141	2497.533
650.269	2465.557
650.397	2465.025
650.525	2461.721
650.653	2468.156
650.781	2463.123
650.910	2447.246
651.038	2417.680
651.166	2432.680
651.294	2415.656
651.422	2404.877
651.550	2399.893
651.678	2406.615
651.806	2381.000
651.935	2389.369
652.063	2370.877
652.191	2367.508
652.319	2364.943
652.447	2368.549
652.575	2351.385
652.703	2352.041
652.831	2336.770
652.960	2325.074
653.088	2322.910
653.216	2302.033
653.344	2313.328
653.472	2310.893
653.600	2293.549
653.728	2295.328
653.856	2293.713
653.985	2290.713
654.113	2268.762
654.241	2289.287
654.369	2269.623
654.497	2281.680
654.625	2266.459
654.753	2263.213
654.881	2260.574
655.010	2255.623
655.138	2246.992
655.266	2243.877
655.394	2214.270
655.522	2235.746
655.650	2209.582
655.778	2231.369
655.906	2219.615
656.035	2194.049
656.163	2196.582
656.291	2203.115
656.419	2194.025
656.547	2194.549
656.675	2170.393
656.803	2188.443
656.931	2172.918
657.060	2166.541
657.188	2170.238
657.316	2170.951
657.444	2164.516
657.572	2165.877
657.700	2154.549
657.828	2149.549
657.956	2157.123
658.085	2173.459
658.213	2154.516
658.341	2140.705
658.469	2136.213
658.597	2147.057
658.725	2147.205
658.853	2125.016
658.981	2113.320
659.110	2119.631
659.238	2110.213
659.366	2107.689
659.494	2097.992
659.622	2099.893
659.750	2098.246
659.878	2094.959
660.006	2105.107
660.135	2073.779
660.263	2090.926
660.391	2074.246
660.519	2089.049
660.647	2054.467
660.775	2065.066
660.903	2052.656
661.031	2046.074
661.160	2061.156
661.288	2043.516
661.416	2050.033
661.544	2038.869
661.672	2037.648
661.800	2042.016
661.928	2030.467
662.056	2017.238
662.185	2022.041
662.313	2007.508
662.441	2029.156
662.569	2022.754
662.697	2003.525
662.825	1996.607
662.953	2014.869
663.081	1995.664
663.210	1987.123
663.338	1995.270
663.466	1985.361
663.594	1981.287
663.722	1970.975
663.850	1968.484
663.978	1945.254
664.106	1976.434
664.235	1953.205
664.363	1974.426
664.491	1948.484
664.619	1959.377
664.747	1941.557
664.875	1939.934
665.003	1927.738
665.131	1946.820
665.260	1949.582
665.388	1912.787
665.516	1918.197
665.644	1900.098
665.772	1912.221
665.900	1917.746
666.028	1902.492
666.156	1903.689
666.285	1900.762
666.413	1910.508
666.541	1902.270
666.669	1887.057
666.797	1888.074
666.925	1869.623
667.053	1897.123
667.181	1873.811
667.310	1865.238
667.438	1863.803
667.566	1852.746
667.694	1866.484
667.822	1865.672
667.950	1854.107
668.078	1837.910
668.206	1857.574
668.335	1831.369
668.463	1845.557
668.591	1826.033
668.719	1823.377
668.847	1827.033
668.975	1819.238
669.103	1814.066
669.231	1819.672
669.360	1822.910
669.488	1816.197
669.616	1804.426
669.744	1800.648
669.872	1787.918
670.000	1799.836
670.128	1779.721
670.256	1781.041
670.385	1777.000
670.513	1795.934
670.641	1766.230
670.769	1777.516
670.897	1764.180
671.025	1757.639
671.153	1760.934
671.281	1767.287
671.410	1765.115
671.538	1752.975
671.666	1754.598
671.794	1746.361
671.922	1726.221
672.050	1733.730
672.178	1730.475
672.306	1710.352
672.435	1720.811
672.563	1727.811
672.691	1711.262
672.819	1715.459
672.947	1700.164
673.075	1688.533
673.203	1696.852
673.331	1692.492
673.460	1681.016
673.588	1677.148
673.716	1691.189
673.844	1674.934
673.972	1686.533
674.100	1674.934
674.228	1670.000
674.356	1655.902
674.485	1659.574
674.613	1642.615
674.741	1640.279
674.869	1640.164
674.997	1633.770
675.125	1627.270
675.253	1623.074
675.381	1621.516
675.510	1617.672
675.638	1611.197
675.766	1598.852
675.894	1608.672
676.022	1601.131
676.150	1587.598
676.278	1595.393
676.406	1585.008
676.535	1575.172
676.663	1578.434
676.791	1561.721
676.919	1573.975
677.047	1560.230
677.175	1543.492
677.303	1564.828
677.431	1534.402
677.560	1535.049
677.688	1530.434
677.816	1531.557
677.944	1518.361
678.072	1513.680
678.200	1518.852
678.328	1510.344
678.456	1506.574
678.585	1495.828
678.713	1499.779
678.841	1492.451
678.969	1482.541
679.097	1486.254
679.225	1485.615
679.353	1476.533
679.481	1455.041
679.610	1468.713
679.738	1460.516
679.866	1457.844
679.994	1453.721
680.122	1459.172
680.250	1445.631
680.378	1455.393
680.506	1428.582
680.635	1432.008
680.763	1433.525
680.891	1431.320
681.019	1425.025
681.147	1418.885
681.275	1408.131
681.403	1400.303
681.531	1407.434
681.660	1404.582
681.788	1399.852
681.916	1396.090
682.044	1397.648
682.172	1383.320
682.300	1374.033
682.428	1375.156
682.556	1381.557
682.685	1372.811
682.813	1371.541
682.941	1357.770
683.069	1354.762
683.197	1363.115
683.325	1349.484
683.453	1349.525
683.581	1344.615
683.710	1337.975
683.838	1338.270
683.966	1328.311
684.094	1333.287
684.222	1335.041
684.350	1333.336
684.478	1331.713
684.606	1326.615
684.735	1311.762
684.863	1316.885
684.991	1315.418
685.119	1319.984
685.247	1310.287
685.375	1294.844
685.503	1304.361
685.631	1315.197
685.760	1301.746
685.888	1298.172
686.016	1300.074
686.144	1290.910
686.272	1278.910
686.400	1283.254
686.528	1284.967
686.656	1273.836
686.785	1268.713
686.913	1279.451
687.041	1264.000
687.169	1273.680
687.297	1268.000
687.425	1261.984
687.553	1256.205
687.681	1260.516
687.810	1262.721
687.938	1242.975
688.066	1254.746
688.194	1254.836
688.322	1237.484
688.450	1247.033
688.578	1248.721
688.706	1246.623
688.835	1240.344
688.963	1234.189
689.091	1236.721
689.219	1223.508
689.347	1233.270
689.475	1222.992
689.603	1225.959
689.731	1226.123
689.860	1215.762
689.988	1217.025
690.116	1212.197
690.244	1225.057
690.372	1215.951
690.500	1201.721
690.628	1205.639
690.756	1208.107
690.885	1202.861
691.013	1190.852
691.141	1192.689
691.269	1197.148
691.397	1187.721
691.525	1192.090
691.653	1198.197
691.781	1186.418
691.910	1176.000
692.038	1177.180
692.166	1175.811
692.294	1176.139
692.422	1173.041
692.550	1176.984
692.678	1169.344
692.806	1161.754
692.935	1159.680
693.063	1149.623
693.191	1155.828
693.319	1154.623
693.447	1151.770
693.575	1150.631
693.703	1151.475
693.831	1145.967
693.960	1137.869
694.088	1141.779
694.216	1128.287
694.344	1131.164
694.472	1140.893
694.600	1131.533
694.728	1121.369
694.856	1117.877
694.985	1115.754
695.113	1110.664
695.241	1108.148
695.369	1110.467
695.497	1109.287
695.625	1116.967
695.753	1104.541
695.881	1090.418
696.010	1092.943
696.138	1095.090
696.266	1084.189
696.394	1077.352
696.522	1081.525
696.650	1077.508
696.778	1075.434
696.906	1078.254
697.035	1060.754
697.163	1062.082
697.291	1059.320
697.419	1065.566
697.547	1052.607
697.675	1054.664
697.803	1050.008
697.931	1043.156
698.060	1040.221
698.188	1034.648
698.316	1035.393
698.444	1025.795
698.572	1026.467
698.700	1035.377
698.828	1025.008
698.956	1008.656
699.085	1007.336
699.213	1003.779
699.341	1002.418
699.469	999.295
699.597	1000.557
699.725	1000.926
699.853	989.852
699.981	990.508
700.110	988.008
700.238	987.607
700.366	979.861
700.494	979.107
700.622	979.852
700.750	963.172
700.878	970.000
701.006	967.984
701.135	969.336
701.263	964.492
701.391	951.664
701.519	963.385
701.647	954.172
701.775	954.951
701.903	946.975
702.031	950.852
702.160	954.492
702.288	944.172
702.416	941.213
702.544	932.623
702.672	933.180
702.800	930.270
702.928	933.270
703.056	924.967
703.185	922.246
703.313	920.082
703.441	911.148
703.569	914.279
703.697	916.180
703.825	911.877
703.953	916.689
704.081	907.180
704.210	903.262
704.338	901.475
704.466	898.328
704.594	898.328
704.722	900.016
704.850	891.902
704.978	890.139
705.106	896.500
705.235	873.377
705.363	882.705
705.491	879.311
705.619	872.697
705.747	867.779
705.875	871.500
706.003	870.270
706.131	868.754
706.260	855.213
706.388	856.221
706.516	854.041
706.644	853.852
706.772	861.344
706.900	844.738
707.028	846.246
707.156	838.975
707.285	846.377
707.413	836.189
707.541	829.320
707.669	824.533
707.797	827.992
707.925	825.820
708.053	823.369
708.181	824.516
708.310	816.303
708.438	817.139
708.566	813.975
708.694	810.230
708.822	805.508
708.950	806.246
709.078	799.107
709.206	791.738
709.335	800.836
709.463	792.918
709.591	787.590
709.719	776.189
709.847	780.230
709.975	778.836
710.103	773.074
710.231	774.779
710.360	769.344
710.488	764.320
710.616	763.393
710.744	762.902
710.872	766.221
711.000	756.115
711.128	752.664
711.256	748.639
711.385	751.000
711.513	745.000
711.641	747.328
711.769	736.418
711.897	739.189
712.025	734.262
712.153	737.393
712.281	726.943
712.410	730.107
712.538	731.402
712.666	724.672
712.794	725.746
712.922	718.697
713.050	717.164
713.178	712.984
713.306	720.074
713.435	709.615
713.563	706.098
713.691	714.689
713.819	706.738
713.947	696.295
714.075	698.139
714.203	697.402
714.331	692.934
714.460	692.082
714.588	689.811
714.716	684.475
714.844	693.369
714.972	680.426
715.100	686.246
715.228	677.746
715.356	680.508
715.485	684.770
715.613	672.508
715.741	675.000
715.869	667.525
715.997	666.508
716.125	661.172
716.253	660.869
716.381	665.205
716.510	662.541
716.638	659.156
716.766	651.049
716.894	650.115
717.022	646.607
717.150	648.770
717.278	652.361
717.406	647.533
717.535	645.574
717.663	644.672
717.791	646.197
717.919	642.369
718.047	637.205
718.175	635.893
718.303	634.902
718.431	628.648
718.560	626.443
718.688	618.033
718.816	631.008
718.944	624.246
719.072	629.525
719.200	623.197
719.328	618.082
719.456	618.377
719.585	617.631
719.713	615.418
719.841	614.664
719.969	608.467
720.097	607.090
720.225	600.238
720.353	604.057
720.481	602.205
720.610	600.934
720.738	598.369
720.866	594.303
720.994	595.410
721.122	597.951
721.250	594.246
721.378	586.221
721.506	588.934
721.635	582.098
721.763	586.721
721.891	584.098
722.019	584.262
722.147	580.270
722.275	575.689
722.403	573.475
722.531	570.992
722.660	571.582
722.788	567.262
722.916	567.230
723.044	563.254
723.172	567.902
723.300	563.221
723.428	560.541
723.556	556.279
723.685	562.369
723.813	559.639
723.941	553.926
724.069	548.533
724.197	550.074
724.325	543.574
724.453	547.951
724.581	543.557
724.710	542.049
724.838	537.320
724.966	531.967
725.094	538.016
725.222	535.402
725.350	531.508
725.478	532.467
725.606	530.525
725.735	522.492
725.863	525.639
725.991	516.336
726.119	519.820
726.247	516.254
726.375	515.893
726.503	515.328
726.631	508.279
726.760	510.484
726.888	505.393
727.016	504.172
727.144	501.393
727.272	503.533
727.400	498.877
727.528	497.418
727.656	493.639
727.785	494.934
727.913	495.713
728.041	485.852
728.169	494.139
728.297	486.467
728.425	488.746
728.553	482.975
728.681	480.844
728.810	483.811
728.938	475.533
729.066	479.115
729.194	473.533
729.322	473.574
729.450	472.934
729.578	473.680
729.706	466.107
729.835	469.402
729.963	466.377
730.091	461.803
730.219	460.877
730.347	462.959
730.475	457.803
730.603	452.975
730.731	456.311
730.860	450.770
730.988	452.893
731.116	446.672
731.244	452.861
731.372	451.803
731.500	447.762
731.628	441.885
731.756	442.057
731.885	442.074
732.013	438.533
732.141	436.238
732.269	433.377
732.397	438.885
732.525	431.008
732.653	432.844
732.781	434.525
732.910	431.893
733.038	428.107
733.166	427.615
733.294	425.746
733.422	425.066
733.550	422.689
733.678	421.221
733.806	424.574
733.935	419.820
734.063	418.557
734.191	421.262
734.319	413.828
734.447	416.123
734.575	419.221
734.703	418.090
734.831	413.205
734.960	410.008
735.088	409.221
735.216	408.705
735.344	402.066
735.472	403.508
735.600	403.484
735.728	400.574
735.856	402.033
735.985	398.213
736.113	397.008
736.241	397.238
736.369	399.582
736.497	392.689
736.625	400.541
736.753	392.205
736.881	393.213
737.010	388.533
737.138	393.139
737.266	389.926
737.394	387.385
737.522	387.598
737.650	386.984
737.778	383.844
737.906	380.582
738.035	376.902
738.163	385.410
738.291	378.861
738.419	374.344
738.547	380.336
738.675	374.967
738.803	371.467
738.931	370.016
739.060	373.369
739.188	370.164
739.316	372.451
739.444	369.352
739.572	367.295
739.700	363.787
739.828	363.172
739.956	364.443
740.085	365.410
740.213	365.328
740.341	357.828
740.469	359.795
740.597	358.943
740.725	362.279
740.853	352.811
740.981	355.934
741.110	354.418
741.238	359.098
741.366	353.754
741.494	355.910
741.622	352.975
741.750	351.754
741.878	351.541
742.006	345.623
742.135	347.795
742.263	345.902
742.391	342.844
742.519	346.877
742.647	342.664
742.775	342.115
742.903	346.107
743.031	340.549
743.160	339.033
743.288	340.697
743.416	335.098
743.544	336.533
743.672	337.697
743.800	336.902
743.928	334.262
744.056	332.148
744.185	337.385
744.313	333.451
744.441	330.680
744.569	332.705
744.697	325.811
744.825	331.861
744.953	330.123
745.081	325.246
745.210	326.082
745.338	325.590
745.466	320.779
745.594	323.918
745.722	320.828
745.850	326.115
745.978	322.139
746.106	321.697
746.235	316.975
746.363	317.992
746.491	316.107
746.619	317.689
746.747	313.877
746.875	311.369
747.003	312.057
747.131	312.844
747.260	310.434
747.388	313.607
747.516	311.270
747.644	310.795
747.772	308.869
747.900	308.025
748.028	303.041
748.156	298.246
748.285	307.393
748.413	306.131
748.541	302.410
748.669	301.066
748.797	301.844
748.925	297.943
749.053	302.164
749.181	297.803
749.310	296.656
749.438	299.893
749.566	293.975
749.694	294.369
749.822	297.279
749.950	295.500
750.078	297.172
750.206	291.885
750.335	294.746
750.463	292.754
750.591	287.295
750.719	287.607
750.847	286.828
750.975	285.451
751.103	283.287
751.231	288.869
751.360	288.287
751.488	283.893
751.616	279.672
751.744	284.164
751.872	282.566
752.000	279.992
752.128	278.672
752.256	280.172
752.385	276.090
752.513	278.770
752.641	270.943
752.769	277.189
752.897	274.467
753.025	270.623
753.153	269.541
753.281	272.156
753.410	274.205
753.538	268.934
753.666	273.582
753.794	270.172
753.922	267.525
754.050	269.098
754.178	269.041
754.306	264.697
754.435	263.566
754.563	267.574
754.691	267.598
754.819	263.238
754.947	263.172
755.075	264.025
755.203	259.107
755.331	264.811
755.460	260.926
755.588	260.508
755.716	255.984
755.844	258.311
755.972	258.443
756.100	260.361
756.228	257.852
756.356	253.016
756.485	257.156
756.613	256.795
756.741	252.213
756.869	254.648
756.997	253.123
757.125	252.566
757.253	252.951
757.381	251.525
757.510	253.508
757.638	248.213
757.766	252.164
757.894	247.025
758.022	247.738
758.150	248.189
758.278	248.320
758.406	245.262
758.535	244.607
758.663	246.639
758.791	242.975
758.919	245.721
759.047	243.336
759.175	245.631
759.303	241.664
759.431	241.516
759.560	241.344
759.688	240.607
759.816	242.434
759.944	237.410
760.072	239.115
760.200	238.295
760.328	241.131
760.456	238.057
760.585	237.221
760.713	232.934
760.841	233.746
760.969	233.311
761.097	235.246
761.225	234.303
761.353	231.352
761.481	232.156
761.610	234.156
761.738	231.623
761.866	230.746
761.994	230.189
762.122	226.828
762.250	226.689
762.378	226.254
762.506	226.705
762.635	227.951
762.763	226.082
762.891	227.795
763.019	226.049
763.147	225.754
763.275	225.533
763.403	222.820
763.531	220.730
763.660	221.279
763.788	224.074
763.916	220.541
764.044	225.557
764.172	221.270
764.300	219.902
764.428	219.984
764.556	218.770
764.685	218.016
764.813	214.934
764.941	215.295
765.069	218.754
765.197	213.934
765.325	214.762
765.453	213.393
765.581	214.811
765.710	213.369
765.838	212.500
765.966	213.131
766.094	214.385
766.222	212.164
766.350	210.295
766.478	212.311
766.606	211.066
766.735	210.582
766.863	209.574
766.991	210.279
767.119	209.508
767.247	208.689
767.375	206.951
767.503	205.041
767.631	204.992
767.760	207.811
767.888	205.303
768.016	205.844
768.144	205.959
768.272	208.238
768.400	206.115
768.528	208.385
768.656	204.172
768.785	202.082
768.913	203.361
769.041	201.238
769.169	200.410
769.297	202.516
769.425	199.852
769.553	201.000
769.681	201.885
769.810	202.320
769.938	196.107
770.066	198.344
770.194	199.262
770.322	199.844
770.450	196.016
770.578	196.082
770.706	197.197
770.835	195.361
770.963	196.705
771.091	195.139
771.219	197.205
771.347	196.557
771.475	196.443
771.603	193.533
771.731	194.852
771.860	198.000
771.988	194.033
772.116	192.779
772.244	190.992
772.372	193.754
772.500	190.213
772.628	192.820
772.756	190.770
772.885	187.836
773.013	187.418
773.141	188.041
773.269	189.311
773.397	192.451
773.525	187.607
773.653	186.836
773.781	188.484
773.910	187.328
774.038	187.221
774.166	186.320
774.294	186.238
774.422	184.533
774.550	185.730
774.678	187.623
774.806	182.139
774.935	186.672
775.063	184.754
775.191	182.369
775.319	182.385
775.447	185.279
775.575	183.541
775.703	183.082
775.831	181.975
775.960	181.877
776.088	181.230
776.216	183.680
776.344	179.746
776.472	182.910
776.600	179.369
776.728	179.115
776.856	177.639
776.985	180.467
777.113	177.516
777.241	176.902
777.369	176.861
777.497	176.434
777.625	177.484
777.753	173.418
777.881	178.516
778.010	173.156
778.138	175.992
778.266	172.443
778.394	174.730
778.522	175.697
778.650	172.508
778.778	171.254
778.906	173.041
779.035	177.254
779.163	170.566
779.291	172.123
779.419	173.926
779.547	175.779
779.675	171.574
779.803	169.533
779.931	171.336
780.060	173.402
780.188	171.779
780.316	169.082
780.444	167.885
780.572	169.508
780.700	170.467
780.828	167.902
780.956	171.328
781.085	171.041
781.213	168.098
781.341	165.885
781.469	168.877
781.597	167.664
781.725	167.525
781.853	167.680
781.981	167.295
782.110	165.451
782.238	164.156
782.366	167.549
782.494	163.902
782.622	163.320
782.750	162.369
782.878	165.189
783.006	164.852
783.135	165.082
783.263	162.525
783.391	163.049
783.519	163.426
783.647	162.205
783.775	162.656
783.903	163.828
784.031	160.967
784.160	159.443
784.288	160.434
784.416	160.639
784.544	159.492
784.672	158.418
784.800	160.156
784.928	161.131
785.056	160.467
785.185	158.623
785.313	156.582
785.441	159.320
785.569	156.385
785.697	159.820
785.825	158.238
785.953	159.082
786.081	155.762
786.210	155.934
786.338	156.148
786.466	154.639
786.594	154.590
786.722	153.959
786.850	155.434
786.978	152.656
787.106	152.893
787.235	152.459
787.363	154.098
787.491	154.369
787.619	153.549
787.747	154.623
787.875	153.033
788.003	151.262
788.131	150.615
788.260	152.246
788.388	154.107
788.516	150.320
788.644	151.221
788.772	149.279
788.900	152.336
789.028	148.123
789.156	150.967
789.285	148.574
789.413	149.197
789.541	150.443
789.669	148.730
789.797	148.951
789.925	148.459
790.053	149.902
790.181	150.549
790.310	146.885
790.438	148.008
790.566	147.443
790.694	147.852
790.822	147.770
790.950	146.689
791.078	145.811
791.206	145.246
791.335	144.451
791.463	146.959
791.591	146.197
791.719	146.713
791.847	144.902
791.975	143.844
792.103	142.861
792.231	143.148
792.360	145.377
792.488	142.852
792.616	145.648
792.744	143.590
792.872	143.402
793.000	144.107
793.128	142.689
793.256	143.246
793.385	140.828
793.513	142.402
793.641	143.172
793.769	140.787
793.897	142.107
794.025	141.295
794.153	141.705
794.281	140.877
794.410	138.385
794.538	139.984
794.666	141.844
794.794	140.541
794.922	139.254
795.050	137.730
795.178	139.049
795.306	137.902
795.435	138.311
795.563	137.295
795.691	139.893
795.819	136.648
795.947	138.426
796.075	138.762
796.203	138.525
796.331	136.934
796.460	137.426
796.588	137.967
796.716	136.500
796.844	138.279
796.972	138.328
797.100	134.689
797.228	138.205
797.356	139.082
797.485	137.672
797.613	135.811
797.741	136.852
797.869	136.295
797.997	135.762
798.125	134.205
798.253	136.410
798.381	134.238
798.510	134.320
798.638	132.975
798.766	134.361
798.894	134.131
799.022	133.549
799.150	132.877
799.278	133.574
799.406	136.066
799.535	135.820
799.663	135.131
799.791	133.574
799.919	134.033
800.047	131.525
800.175	133.246
800.303	131.795
800.431	131.959
800.560	132.074
800.688	133.475
800.816	131.098
800.944	132.000
801.072	131.402
801.200	132.156
801.328	132.172
801.456	131.820
801.585	132.967
801.713	131.344
801.841	132.451
801.969	131.648
802.097	131.000
802.225	130.320
802.353	130.705
802.481	130.410
802.610	130.459
802.738	129.025
802.866	129.918
802.994	130.910
803.122	130.607
803.250	128.721
803.378	128.648
803.506	131.902
803.635	129.508
803.763	129.893
803.891	129.549
804.019	129.910
804.147	129.598
804.275	129.443
804.403	128.180
804.531	128.533
804.660	126.262
804.788	128.557
804.916	127.680
805.044	127.820
805.172	127.885
805.300	127.344
805.428	127.197
805.556	128.959
805.685	126.615
805.813	128.172
805.941	126.590
806.069	127.131
806.197	127.230
806.325	124.680
806.453	124.631
806.581	127.344
806.710	125.270
806.838	125.615
806.966	125.574
807.094	126.205
807.222	125.197
807.350	124.844
807.478	125.951
807.606	124.205
807.735	125.549
807.863	125.131
807.991	123.984
808.119	125.738
808.247	123.730
808.375	123.779
808.503	124.410
808.631	124.074
808.760	125.762
808.888	123.574
809.016	125.328
809.144	123.336
809.272	123.730
809.400	124.877
809.528	123.262
809.656	123.754
809.785	123.959
809.913	123.352
810.041	120.934
810.169	123.377
810.297	123.377
810.425	122.566
810.553	121.131
810.681	121.910
810.810	123.139
810.938	122.746
811.066	121.902
811.194	123.484
811.322	122.836
811.450	122.320
811.578	122.418
811.706	122.205
811.835	120.984
811.963	122.369
812.091	122.320
812.219	121.861
812.347	122.098
812.475	121.197
812.603	121.680
812.731	120.230
812.860	122.754
812.988	121.352
813.116	120.934
813.244	121.410
813.372	121.287
813.500	120.705
813.628	121.066
813.756	118.844
813.885	120.934
814.013	119.779
814.141	121.254
814.269	120.369
814.397	120.746
814.525	119.566
814.653	119.000
814.781	118.131
814.910	118.926
815.038	120.492
815.166	119.557
815.294	119.049
815.422	119.828
815.550	120.156
815.678	117.762
815.806	119.336
815.935	117.336
816.063	118.910
816.191	117.533
816.319	116.582
816.447	117.926
816.575	118.828
816.703	119.918
816.831	118.934
816.960	120.254
817.088	117.377
817.216	117.639
817.344	117.910
817.472	117.467
817.600	117.180
817.728	117.451
817.856	118.475
817.985	116.623
818.113	118.008
818.241	116.238
818.369	117.090
818.497	119.139
818.625	117.230
818.753	117.000
818.881	117.385
819.010	116.418
819.138	116.672
819.266	115.205
819.394	115.352
819.522	115.410
819.650	117.090
819.778	115.238
819.906	116.074
820.035	116.074
820.163	117.893
820.291	115.918
820.419	115.049
820.547	115.180
820.675	115.148
820.803	115.230
820.931	115.287
821.060	114.156
821.188	116.770
821.316	114.049
821.444	115.943
821.572	115.639
821.700	114.934
821.828	115.205
821.956	115.541
822.085	115.008
822.213	115.721
822.341	114.869
822.469	114.926
822.597	114.787
822.725	113.902
822.853	115.311
822.981	113.811
823.110	115.402
823.238	113.557
823.366	114.385
823.494	113.156
823.622	114.893
823.750	113.959
823.878	112.500
824.006	116.574
824.135	115.754
824.263	114.951
824.391	114.590
824.519	114.836
824.647	114.820
824.775	114.189
824.903	114.590
825.031	115.992
825.160	115.139
825.288	114.180
825.416	113.459
825.544	113.082
825.672	113.270
825.800	114.098
825.928	114.098
826.056	112.426
826.185	112.951
826.313	113.516
826.441	113.049
826.569	113.311
826.697	112.672
826.825	112.836
826.953	112.582
827.081	111.418
827.210	113.377
827.338	111.148
827.466	111.623
827.594	112.861
827.722	113.033
827.850	112.533
827.978	112.082
828.106	112.811
828.235	113.541
828.363	112.885
828.491	112.279
828.619	112.574
828.747	112.549
828.875	112.525
829.003	113.361
829.131	112.639
829.260	113.238
829.388	112.418
829.516	112.910
829.644	111.795
829.772	111.525
829.900	111.697
830.028	111.566
830.156	112.852
830.285	111.377
830.413	111.393
830.541	111.467
830.669	112.049
830.797	112.336
830.925	111.721
831.053	109.852
831.181	110.762
831.310	111.967
831.438	111.803
831.566	110.918
831.694	110.779
831.822	112.254
831.950	111.795
832.078	111.754
832.206	111.377
832.335	110.844
832.463	111.148
832.591	111.902
832.719	110.295
832.847	110.885
832.975	110.221
833.103	111.639
833.231	110.410
833.360	111.508
833.488	110.279
833.616	110.574
833.744	110.418
833.872	111.746
834.000	111.680
834.128	110.369
834.256	109.615
834.385	109.836
834.513	110.877
834.641	109.287
834.769	109.697
834.897	110.877
835.025	108.582
835.153	109.566
835.281	109.885
835.410	110.418
835.538	110.574
835.666	109.869
835.794	110.459
835.922	110.664
836.050	109.221
836.178	111.303
836.306	111.500
836.435	111.230
836.563	109.984
836.691	109.754
836.819	111.295
836.947	109.254
837.075	110.213
837.203	108.049
837.331	110.262
837.460	110.254
837.588	109.648
837.716	110.336
837.844	110.238
837.972	110.107
838.100	109.074
838.228	108.852
838.356	108.320
838.485	107.861
838.613	109.738
838.741	110.303
838.869	109.254
838.997	110.418
839.125	108.246
839.253	108.385
839.381	109.443
839.510	109.246
839.638	109.689
839.766	108.336
839.894	109.164
840.022	109.566
840.150	110.033
840.278	108.484
840.406	110.090
840.535	109.369
840.663	107.582
840.791	107.434
840.919	108.016
841.047	108.066
841.175	108.639
841.303	108.893
841.431	109.951
841.560	109.533
841.688	110.197
841.816	108.549
841.944	108.402
842.072	109.049
842.200	107.926
842.328	109.074
842.456	108.631
842.585	109.607
842.713	109.000
842.841	107.607
842.969	108.500
843.097	109.008
843.225	108.303
843.353	109.016
843.481	107.516
843.610	108.074
843.738	108.402
843.866	107.754
