90-70-90_at_679.99nm_cut_at_1276.00Y_01.dat
24.01.2024
13:25:09
cut middle at Y: 1276.00
top cursor: 1337 down cursor: 1215 mean of: 122 lines , 2560 datapoints
wavelength(nm)	intensity[arb. units]
515.994	530.000
516.122	501.672
516.250	495.672
516.378	486.631
516.506	489.459
516.635	487.607
516.763	492.984
516.891	490.746
517.019	501.648
517.147	493.484
517.275	496.877
517.403	492.779
517.531	491.746
517.660	488.492
517.788	491.820
517.916	494.434
518.044	489.705
518.172	492.008
518.300	496.951
518.428	489.967
518.556	492.131
518.685	495.279
518.813	495.057
518.941	500.697
519.069	498.066
519.197	496.320
519.325	504.246
519.453	499.721
519.581	507.098
519.710	496.943
519.838	500.607
519.966	499.811
520.094	494.697
520.222	502.369
520.350	502.041
520.478	506.352
520.606	507.697
520.735	504.943
520.863	504.730
520.991	515.475
521.119	504.254
521.247	508.885
521.375	510.844
521.503	515.213
521.631	510.893
521.760	516.361
521.888	515.025
522.016	519.992
522.144	513.975
522.272	524.492
522.400	522.090
522.528	522.336
522.656	517.664
522.785	520.008
522.913	523.008
523.041	522.762
523.169	517.525
523.297	529.230
523.425	527.123
523.553	526.492
523.681	522.344
523.810	524.139
523.938	535.172
524.066	525.303
524.194	528.008
524.322	527.303
524.450	528.262
524.578	528.484
524.706	528.746
524.835	522.262
524.963	528.689
525.091	525.410
525.219	524.197
525.347	522.885
525.475	523.697
525.603	530.598
525.731	517.082
525.860	527.803
525.988	522.533
526.116	526.025
526.244	523.959
526.372	522.205
526.500	525.697
526.628	534.631
526.756	525.672
526.885	527.074
527.013	519.754
527.141	528.066
527.269	528.000
527.397	530.172
527.525	530.689
527.653	526.221
527.781	522.295
527.910	533.705
528.038	535.131
528.166	527.328
528.294	526.902
528.422	530.828
528.550	532.279
528.678	533.795
528.806	535.762
528.935	532.820
529.063	532.221
529.191	530.852
529.319	531.615
529.447	535.910
529.575	536.148
529.703	538.402
529.831	536.344
529.960	540.533
530.088	541.680
530.216	540.131
530.344	537.959
530.472	544.951
530.600	546.648
530.728	543.959
530.856	542.992
530.985	541.279
531.113	543.254
531.241	548.803
531.369	547.582
531.497	542.525
531.625	546.533
531.753	549.098
531.881	543.090
532.010	539.820
532.138	546.779
532.266	540.918
532.394	542.377
532.522	543.582
532.650	546.205
532.778	550.787
532.906	543.484
533.035	547.197
533.163	541.385
533.291	541.443
533.419	539.820
533.547	540.680
533.675	543.131
533.803	539.303
533.931	541.893
534.060	544.828
534.188	543.295
534.316	541.721
534.444	539.967
534.572	539.189
534.700	539.230
534.828	537.656
534.956	541.311
535.085	544.803
535.213	534.705
535.341	542.820
535.469	542.844
535.597	545.213
535.725	546.926
535.853	548.180
535.981	544.885
536.110	545.689
536.238	553.156
536.366	550.672
536.494	547.459
536.622	552.598
536.750	548.385
536.878	556.557
537.006	557.869
537.135	553.918
537.263	557.172
537.391	559.934
537.519	560.795
537.647	563.082
537.775	561.016
537.903	560.721
538.031	561.803
538.160	568.680
538.288	562.762
538.416	566.680
538.544	563.295
538.672	564.811
538.800	567.680
538.928	568.738
539.056	575.057
539.185	569.623
539.313	565.844
539.441	572.967
539.569	572.320
539.697	572.246
539.825	573.738
539.953	573.803
540.081	568.008
540.210	571.664
540.338	576.418
540.466	578.475
540.594	575.803
540.722	575.574
540.850	572.943
540.978	573.721
541.106	577.295
541.235	574.746
541.363	573.033
541.491	574.295
541.619	574.066
541.747	573.148
541.875	572.656
542.003	570.205
542.131	570.680
542.260	574.762
542.388	570.795
542.516	572.197
542.644	579.082
542.772	580.680
542.900	572.844
543.028	575.361
543.156	574.262
543.285	575.689
543.413	573.598
543.541	580.934
543.669	573.270
543.797	573.631
543.925	578.721
544.053	573.385
544.181	574.467
544.310	578.451
544.438	574.320
544.566	571.615
544.694	579.303
544.822	578.680
544.950	580.697
545.078	575.516
545.206	579.779
545.335	584.492
545.463	573.943
545.591	582.525
545.719	577.877
545.847	581.762
545.975	577.443
546.103	576.008
546.231	580.787
546.360	579.975
546.488	586.107
546.616	584.311
546.744	583.852
546.872	582.893
547.000	584.033
547.128	587.795
547.256	580.303
547.385	586.098
547.513	583.279
547.641	592.484
547.769	589.721
547.897	586.672
548.025	593.648
548.153	592.352
548.281	588.533
548.410	587.320
548.538	586.984
548.666	588.443
548.794	583.803
548.922	589.238
549.050	595.803
549.178	586.189
549.306	590.410
549.435	596.008
549.563	588.943
549.691	589.664
549.819	593.016
549.947	595.328
550.075	593.156
550.203	589.107
550.331	586.090
550.460	589.721
550.588	597.639
550.716	599.066
550.844	590.975
550.972	592.025
551.100	584.451
551.228	589.861
551.356	589.492
551.485	591.426
551.613	590.033
551.741	585.303
551.869	583.492
551.997	583.303
552.125	583.836
552.253	580.426
552.381	577.631
552.510	576.795
552.638	576.631
552.766	577.066
552.894	573.877
553.022	578.984
553.150	575.795
553.278	577.984
553.406	574.156
553.535	571.475
553.663	569.705
553.791	572.992
553.919	570.648
554.047	571.426
554.175	571.377
554.303	570.754
554.431	564.287
554.560	572.082
554.688	573.672
554.816	567.959
554.944	568.270
555.072	563.877
555.200	569.549
555.328	566.279
555.456	575.623
555.585	573.221
555.713	567.434
555.841	576.328
555.969	576.721
556.097	575.451
556.225	572.139
556.353	572.008
556.481	566.836
556.610	575.230
556.738	579.049
556.866	577.811
556.994	572.189
557.122	576.475
557.250	582.041
557.378	583.820
557.506	578.730
557.635	577.361
557.763	578.795
557.891	585.459
558.019	578.311
558.147	584.607
558.275	581.918
558.403	590.484
558.531	585.189
558.660	583.697
558.788	583.639
558.916	588.992
559.044	582.943
559.172	585.910
559.300	586.533
559.428	588.451
559.556	582.148
559.685	586.402
559.813	583.557
559.941	594.828
560.069	591.230
560.197	590.500
560.325	592.820
560.453	587.926
560.581	595.803
560.710	585.656
560.838	585.705
560.966	592.008
561.094	593.369
561.222	591.270
561.350	588.475
561.478	590.180
561.606	587.820
561.735	581.574
561.863	586.131
561.991	590.459
562.119	585.295
562.247	587.131
562.375	583.820
562.503	587.221
562.631	590.525
562.760	583.254
562.888	585.525
563.016	584.893
563.144	587.721
563.272	581.467
563.400	573.352
563.528	584.844
563.656	582.639
563.785	581.861
563.913	585.828
564.041	580.500
564.169	582.270
564.297	576.541
564.425	577.541
564.553	582.262
564.681	582.566
564.810	583.197
564.938	583.008
565.066	578.492
565.194	583.008
565.322	582.115
565.450	577.115
565.578	582.057
565.706	580.902
565.835	584.049
565.963	578.377
566.091	577.607
566.219	583.697
566.347	577.803
566.475	581.287
566.603	583.811
566.731	583.697
566.860	582.951
566.988	587.926
567.116	590.664
567.244	587.984
567.372	588.262
567.500	590.803
567.628	593.492
567.756	587.861
567.885	590.000
568.013	590.984
568.141	598.000
568.269	595.361
568.397	594.344
568.525	594.303
568.653	597.238
568.781	598.582
568.910	607.213
569.038	602.672
569.166	593.123
569.294	599.713
569.422	601.557
569.550	599.492
569.678	608.213
569.806	606.172
569.935	600.754
570.063	610.164
570.191	608.434
570.319	612.066
570.447	610.664
570.575	612.016
570.703	608.352
570.831	617.844
570.960	612.172
571.088	618.697
571.216	610.984
571.344	617.369
571.472	621.131
571.600	621.943
571.728	622.115
571.856	617.238
571.985	614.672
572.113	626.377
572.241	615.123
572.369	625.811
572.497	622.197
572.625	624.926
572.753	621.984
572.881	622.303
573.010	624.361
573.138	629.811
573.266	621.730
573.394	626.344
573.522	627.270
573.650	625.426
573.778	628.189
573.906	622.836
574.035	624.484
574.163	625.779
574.291	624.311
574.419	625.557
574.547	627.639
574.675	630.598
574.803	626.648
574.931	622.393
575.060	633.467
575.188	626.484
575.316	632.434
575.444	631.418
575.572	631.549
575.700	624.238
575.828	635.311
575.956	630.918
576.085	624.238
576.213	627.352
576.341	629.369
576.469	624.361
576.597	624.820
576.725	627.590
576.853	621.877
576.981	625.721
577.110	620.598
577.238	624.057
577.366	621.803
577.494	620.730
577.622	619.451
577.750	626.844
577.878	617.066
578.006	625.820
578.135	625.811
578.263	615.820
578.391	625.852
578.519	619.590
578.647	625.328
578.775	621.410
578.903	615.852
579.031	622.254
579.160	617.295
579.288	615.656
579.416	616.754
579.544	622.574
579.672	620.270
579.800	620.107
579.928	614.566
580.056	615.172
580.185	621.189
580.313	619.074
580.441	611.516
580.569	613.098
580.697	615.811
580.825	615.164
580.953	614.057
581.081	621.393
581.210	622.926
581.338	627.738
581.466	621.967
581.594	622.393
581.722	623.787
581.850	619.943
581.978	620.926
582.106	623.533
582.235	627.098
582.363	621.270
582.491	623.107
582.619	623.361
582.747	633.025
582.875	630.164
583.003	630.295
583.131	631.311
583.260	630.287
583.388	631.959
583.516	632.492
583.644	630.426
583.772	640.139
583.900	642.156
584.028	638.123
584.156	637.197
584.285	642.893
584.413	640.779
584.541	648.205
584.669	641.943
584.797	649.615
584.925	647.385
585.053	649.566
585.181	654.344
585.310	653.926
585.438	649.008
585.566	651.295
585.694	662.836
585.822	666.328
585.950	658.361
586.078	657.016
586.206	657.295
586.335	660.270
586.463	662.664
586.591	668.369
586.719	662.672
586.847	662.738
586.975	669.918
587.103	669.311
587.231	663.770
587.360	674.689
587.488	675.000
587.616	673.943
587.744	677.623
587.872	668.090
588.000	669.508
588.128	676.426
588.256	670.566
588.385	667.418
588.513	669.877
588.641	681.934
588.769	678.451
588.897	679.787
589.025	672.975
589.153	675.902
589.281	668.508
589.410	673.459
589.538	679.836
589.666	676.410
589.794	681.582
589.922	682.713
590.050	679.607
590.178	675.500
590.306	673.508
590.435	680.434
590.563	671.311
590.691	677.910
590.819	679.730
590.947	682.525
591.075	682.156
591.203	678.459
591.331	684.213
591.460	681.869
591.588	681.344
591.716	682.049
591.844	680.713
591.972	684.607
592.100	682.139
592.228	683.975
592.356	687.180
592.485	673.803
592.613	681.270
592.741	682.508
592.869	687.213
592.997	688.639
593.125	694.000
593.253	689.369
593.381	684.033
593.510	684.656
593.638	684.844
593.766	689.869
593.894	683.074
594.022	687.639
594.150	690.148
594.278	694.951
594.406	689.025
594.535	695.869
594.663	704.041
594.791	695.361
594.919	695.951
595.047	696.779
595.175	696.828
595.303	701.016
595.431	695.959
595.560	704.139
595.688	701.697
595.816	691.803
595.944	703.492
596.072	703.025
596.200	702.992
596.328	706.467
596.456	705.770
596.585	706.123
596.713	710.123
596.841	702.730
596.969	702.967
597.097	711.738
597.225	717.238
597.353	717.828
597.481	714.607
597.610	709.492
597.738	721.893
597.866	714.918
597.994	717.213
598.122	716.172
598.250	718.721
598.378	717.697
598.506	719.131
598.635	716.385
598.763	720.197
598.891	719.713
599.019	722.811
599.147	724.697
599.275	721.844
599.403	728.787
599.531	727.721
599.660	725.443
599.788	732.434
599.916	728.967
600.044	729.426
600.172	733.959
600.300	732.672
600.428	728.352
600.556	729.639
600.685	732.295
600.813	732.525
600.941	739.057
601.069	734.156
601.197	743.426
601.325	747.344
601.453	739.607
601.581	747.967
601.710	745.295
601.838	754.262
601.966	742.287
602.094	750.074
602.222	745.730
602.350	744.000
602.478	753.238
602.606	757.270
602.735	750.123
602.863	761.967
602.991	758.828
603.119	758.270
603.247	761.943
603.375	753.738
603.503	754.738
603.631	768.803
603.760	769.344
603.888	761.090
604.016	765.615
604.144	768.221
604.272	769.975
604.400	777.172
604.528	770.926
604.656	780.721
604.785	775.746
604.913	786.041
605.041	779.967
605.169	783.262
605.297	783.402
605.425	786.295
605.553	784.041
605.681	782.918
605.810	787.139
605.938	789.574
606.066	793.172
606.194	787.549
606.322	789.434
606.450	793.492
606.578	789.803
606.706	799.090
606.835	795.377
606.963	802.148
607.091	801.861
607.219	800.705
607.347	795.459
607.475	796.557
607.603	803.369
607.731	798.836
607.860	796.549
607.988	794.975
608.116	803.648
608.244	799.418
608.372	800.713
608.500	804.721
608.628	805.279
608.756	793.795
608.885	803.451
609.013	795.943
609.141	798.467
609.269	798.041
609.397	798.533
609.525	802.410
609.653	801.615
609.781	799.016
609.910	796.107
610.038	803.475
610.166	806.377
610.294	797.484
610.422	793.287
610.550	794.910
610.678	797.639
610.806	802.869
610.935	793.541
611.063	796.270
611.191	801.689
611.319	794.131
611.447	788.721
611.575	799.344
611.703	795.254
611.831	796.393
611.960	801.926
612.088	790.877
612.216	796.254
612.344	793.631
612.472	795.123
612.600	793.549
612.728	792.631
612.856	798.541
612.985	797.910
613.113	799.410
613.241	798.385
613.369	795.631
613.497	799.328
613.625	798.607
613.753	795.279
613.881	798.369
614.010	797.016
614.138	791.631
614.266	790.705
614.394	799.672
614.522	795.189
614.650	799.574
614.778	794.902
614.906	802.287
615.035	798.459
615.163	797.926
615.291	795.434
615.419	794.754
615.547	789.189
615.675	803.770
615.803	798.738
615.931	805.967
616.060	803.664
616.188	806.590
616.316	794.213
616.444	798.459
616.572	802.533
616.700	802.041
616.828	806.320
616.956	808.639
617.085	812.787
617.213	815.197
617.341	801.426
617.469	814.361
617.597	810.656
617.725	811.910
617.853	808.672
617.981	812.074
618.110	816.295
618.238	812.697
618.366	816.156
618.494	808.811
618.622	819.221
618.750	821.557
618.878	817.025
619.006	819.943
619.135	827.295
619.263	822.795
619.391	830.705
619.519	824.426
619.647	828.352
619.775	834.639
619.903	834.270
620.031	830.352
620.160	836.057
620.288	828.139
620.416	846.918
620.544	838.713
620.672	844.049
620.800	836.180
620.928	842.721
621.056	845.508
621.185	841.607
621.313	842.992
621.441	842.869
621.569	851.123
621.697	851.738
621.825	856.516
621.953	847.500
622.081	863.934
622.210	842.033
622.338	853.156
622.466	858.918
622.594	864.754
622.722	854.098
622.850	872.984
622.978	861.820
623.106	858.770
623.235	868.770
623.363	865.008
623.491	867.000
623.619	868.205
623.747	865.566
623.875	873.402
624.003	867.508
624.131	862.098
624.260	865.566
624.388	871.730
624.516	871.270
624.644	870.664
624.772	874.951
624.900	871.918
625.028	864.779
625.156	878.295
625.285	867.434
625.413	876.852
625.541	869.328
625.669	863.238
625.797	876.918
625.925	876.041
626.053	873.115
626.181	872.057
626.310	878.852
626.438	868.984
626.566	875.492
626.694	875.377
626.822	874.574
626.950	881.689
627.078	867.369
627.206	869.418
627.335	884.139
627.463	874.836
627.591	873.697
627.719	874.631
627.847	877.639
627.975	876.951
628.103	876.639
628.231	880.631
628.360	870.295
628.488	873.828
628.616	872.623
628.744	869.525
628.872	869.074
629.000	871.566
629.128	877.516
629.256	873.943
629.385	866.410
629.513	873.123
629.641	877.492
629.769	872.156
629.897	877.361
630.025	862.713
630.153	876.861
630.281	875.631
630.410	864.320
630.538	878.221
630.666	879.107
630.794	877.156
630.922	873.082
631.050	865.410
631.178	872.148
631.306	864.967
631.435	866.516
631.563	869.525
631.691	871.074
631.819	873.984
631.947	876.418
632.075	869.975
632.203	872.869
632.331	867.434
632.460	861.049
632.588	866.828
632.716	870.303
632.844	866.189
632.972	872.213
633.100	875.410
633.228	876.475
633.356	864.779
633.485	874.041
633.613	872.508
633.741	873.582
633.869	870.598
633.997	869.607
634.125	867.779
634.253	867.049
634.381	861.943
634.510	864.090
634.638	866.705
634.766	870.574
634.894	862.115
635.022	861.041
635.150	858.975
635.278	865.246
635.406	864.434
635.535	870.131
635.663	868.738
635.791	852.008
635.919	863.205
636.047	862.590
636.175	856.131
636.303	859.115
636.431	864.189
636.560	860.033
636.688	859.172
636.816	854.082
636.944	852.492
637.072	857.779
637.200	856.025
637.328	853.623
637.456	858.918
637.585	852.680
637.713	858.672
637.841	858.820
637.969	843.016
638.097	854.975
638.225	861.148
638.353	855.459
638.481	859.066
638.610	851.877
638.738	861.689
638.866	857.492
638.994	853.549
639.122	856.525
639.250	859.041
639.378	857.852
639.506	850.221
639.635	858.434
639.763	844.508
639.891	859.967
640.019	852.533
640.147	853.639
640.275	848.418
640.403	847.066
640.531	857.270
640.660	851.082
640.788	862.598
640.916	850.566
641.044	858.270
641.172	861.098
641.300	865.410
641.428	854.385
641.556	857.746
641.685	857.803
641.813	857.680
641.941	862.410
642.069	859.770
642.197	861.557
642.325	852.910
642.453	858.738
642.581	867.975
642.710	854.730
642.838	866.418
642.966	859.451
643.094	858.689
643.222	853.967
643.350	864.934
643.478	862.328
643.606	863.525
643.735	858.508
643.863	854.393
643.991	869.721
644.119	862.475
644.247	863.893
644.375	858.795
644.503	865.500
644.631	864.164
644.760	869.230
644.888	863.238
645.016	866.172
645.144	871.852
645.272	856.443
645.400	858.369
645.528	869.057
645.656	857.795
645.785	864.508
645.913	875.148
646.041	876.713
646.169	851.221
646.297	858.566
646.425	866.984
646.553	854.598
646.681	859.246
646.810	862.926
646.938	860.172
647.066	846.295
647.194	864.836
647.322	851.303
647.450	850.434
647.578	860.057
647.706	854.943
647.835	860.516
647.963	856.713
648.091	854.205
648.219	854.557
648.347	852.115
648.475	853.648
648.603	855.664
648.731	849.943
648.860	850.303
648.988	851.598
649.116	851.426
649.244	845.164
649.372	836.131
649.500	840.303
649.628	844.123
649.756	841.525
649.885	832.705
650.013	839.361
650.141	826.057
650.269	823.574
650.397	827.410
650.525	828.344
650.653	836.967
650.781	822.311
650.910	823.328
651.038	816.910
651.166	818.975
651.294	820.000
651.422	813.697
651.550	809.754
651.678	813.943
651.806	809.549
651.935	807.730
652.063	806.508
652.191	802.631
652.319	808.484
652.447	804.352
652.575	800.434
652.703	798.123
652.831	799.344
652.960	796.164
653.088	783.123
653.216	784.418
653.344	788.951
653.472	789.451
653.600	792.902
653.728	796.344
653.856	787.279
653.985	788.385
654.113	781.648
654.241	788.008
654.369	780.139
654.497	789.828
654.625	779.295
654.753	783.418
654.881	779.287
655.010	780.541
655.138	772.492
655.266	772.656
655.394	769.557
655.522	777.664
655.650	768.115
655.778	773.172
655.906	773.746
656.035	768.549
656.163	768.205
656.291	767.836
656.419	770.631
656.547	768.762
656.675	766.172
656.803	765.746
656.931	765.467
657.060	768.803
657.188	763.664
657.316	762.721
657.444	765.074
657.572	761.074
657.700	760.918
657.828	755.016
657.956	762.057
658.085	763.689
658.213	756.172
658.341	754.139
658.469	759.041
658.597	758.648
658.725	755.459
658.853	751.959
658.981	752.869
659.110	753.746
659.238	757.385
659.366	754.295
659.494	746.090
659.622	746.574
659.750	749.689
659.878	747.705
660.006	751.787
660.135	752.041
660.263	745.426
660.391	748.738
660.519	751.910
660.647	741.705
660.775	747.738
660.903	737.828
661.031	742.107
661.160	744.779
661.288	744.287
661.416	740.467
661.544	735.902
661.672	732.107
661.800	734.475
661.928	738.148
662.056	739.221
662.185	736.705
662.313	729.574
662.441	736.762
662.569	726.049
662.697	729.631
662.825	732.811
662.953	732.369
663.081	730.623
663.210	737.418
663.338	741.123
663.466	728.672
663.594	722.377
663.722	718.762
663.850	725.418
663.978	721.844
664.106	733.492
664.235	722.623
664.363	725.000
664.491	719.246
664.619	719.566
664.747	720.926
664.875	723.746
665.003	715.574
665.131	725.402
665.260	715.713
665.388	716.672
665.516	715.475
665.644	714.393
665.772	712.664
665.900	714.738
666.028	715.549
666.156	710.049
666.285	708.713
666.413	710.508
666.541	708.500
666.669	705.148
666.797	705.541
666.925	710.049
667.053	713.885
667.181	701.762
667.310	700.164
667.438	696.607
667.566	701.795
667.694	701.959
667.822	702.508
667.950	704.246
668.078	703.320
668.206	704.885
668.335	692.082
668.463	695.975
668.591	694.434
668.719	687.033
668.847	687.762
668.975	692.934
669.103	692.467
669.231	691.623
669.360	686.705
669.488	692.410
669.616	684.008
669.744	691.475
669.872	686.066
670.000	692.369
670.128	679.910
670.256	689.590
670.385	686.975
670.513	692.172
670.641	678.361
670.769	681.385
670.897	676.131
671.025	677.336
671.153	681.730
671.281	681.992
671.410	678.951
671.538	678.344
671.666	679.844
671.794	672.984
671.922	667.320
672.050	669.164
672.178	675.279
672.306	671.230
672.435	669.869
672.563	679.311
672.691	670.369
672.819	669.180
672.947	661.041
673.075	669.967
673.203	660.918
673.331	660.516
673.460	662.393
673.588	655.033
673.716	661.615
673.844	655.189
673.972	657.016
674.100	661.582
674.228	656.311
674.356	656.787
674.485	653.115
674.613	641.041
674.741	647.811
674.869	650.615
674.997	648.549
675.125	648.516
675.253	646.369
675.381	640.262
675.510	636.721
675.638	637.328
675.766	641.590
675.894	635.074
676.022	630.566
676.150	629.770
676.278	637.213
676.406	639.049
676.535	633.025
676.663	634.754
676.791	629.066
676.919	629.877
677.047	625.008
677.175	620.754
677.303	624.779
677.431	627.074
677.560	613.557
677.688	619.246
677.816	616.803
677.944	615.762
678.072	606.820
678.200	615.270
678.328	614.246
678.456	606.836
678.585	608.352
678.713	610.410
678.841	604.590
678.969	604.484
679.097	603.861
679.225	607.000
679.353	605.344
679.481	596.926
679.610	601.459
679.738	599.811
679.866	593.123
679.994	595.008
680.122	597.238
680.250	592.811
680.378	590.590
680.506	586.131
680.635	588.385
680.763	586.762
680.891	589.303
681.019	587.459
681.147	586.533
681.275	575.230
681.403	581.451
681.531	583.180
681.660	579.967
681.788	575.738
681.916	575.377
682.044	580.615
682.172	568.090
682.300	568.000
682.428	574.221
682.556	565.779
682.685	572.443
682.813	570.090
682.941	570.344
683.069	565.975
683.197	565.443
683.325	557.852
683.453	566.016
683.581	562.525
683.710	567.246
683.838	563.410
683.966	561.303
684.094	562.295
684.222	558.590
684.350	560.270
684.478	560.918
684.606	561.566
684.735	553.934
684.863	553.533
684.991	554.811
685.119	555.041
685.247	551.311
685.375	545.984
685.503	547.115
685.631	551.918
685.760	551.836
685.888	552.008
686.016	546.303
686.144	548.295
686.272	549.049
686.400	547.598
686.528	544.631
686.656	551.025
686.785	540.041
686.913	545.049
687.041	538.352
687.169	543.992
687.297	537.443
687.425	540.508
687.553	539.254
687.681	543.689
687.810	534.213
687.938	538.820
688.066	542.098
688.194	540.336
688.322	535.533
688.450	531.910
688.578	532.238
688.706	534.451
688.835	533.705
688.963	533.516
689.091	539.656
689.219	530.934
689.347	530.311
689.475	533.180
689.603	523.246
689.731	536.033
689.860	532.525
689.988	533.967
690.116	531.672
690.244	523.828
690.372	529.410
690.500	528.205
690.628	531.172
690.756	519.254
690.885	524.016
691.013	524.861
691.141	529.230
691.269	524.803
691.397	519.803
691.525	521.115
691.653	523.656
691.781	521.426
691.910	514.779
692.038	516.189
692.166	515.672
692.294	515.902
692.422	516.598
692.550	515.770
692.678	519.615
692.806	514.139
692.935	515.508
693.063	514.328
693.191	513.803
693.319	513.328
693.447	506.656
693.575	510.582
693.703	506.746
693.831	505.557
693.960	505.033
694.088	505.754
694.216	510.902
694.344	500.770
694.472	507.115
694.600	501.975
694.728	499.754
694.856	500.164
694.985	501.689
695.113	493.352
695.241	499.107
695.369	500.492
695.497	498.156
695.625	498.672
695.753	494.287
695.881	494.975
696.010	496.508
696.138	495.410
696.266	490.016
696.394	490.049
696.522	484.361
696.650	482.951
696.778	488.115
696.906	490.361
697.035	484.402
697.163	483.877
697.291	481.393
697.419	483.262
697.547	475.574
697.675	481.295
697.803	477.320
697.931	474.246
698.060	475.000
698.188	470.836
698.316	474.361
698.444	470.811
698.572	466.664
698.700	474.148
698.828	467.172
698.956	462.459
699.085	460.795
699.213	459.836
699.341	461.721
699.469	461.877
699.597	466.811
699.725	460.943
699.853	453.279
699.981	458.664
700.110	454.795
700.238	457.648
700.366	455.213
700.494	449.148
700.622	451.402
700.750	450.992
700.878	446.352
701.006	440.705
701.135	447.131
701.263	452.352
701.391	444.607
701.519	446.139
701.647	443.754
701.775	447.590
701.903	445.787
702.031	441.238
702.160	441.975
702.288	440.697
702.416	436.180
702.544	439.484
702.672	434.721
702.800	436.123
702.928	437.557
703.056	430.943
703.185	434.918
703.313	434.057
703.441	431.680
703.569	426.869
703.697	431.631
703.825	429.246
703.953	430.582
704.081	428.631
704.210	424.033
704.338	423.074
704.466	417.828
704.594	420.361
704.722	427.811
704.850	423.156
704.978	418.484
705.106	426.426
705.235	414.820
705.363	418.025
705.491	418.525
705.619	418.311
705.747	418.500
705.875	413.066
706.003	408.877
706.131	415.213
706.260	412.303
706.388	411.098
706.516	411.549
706.644	407.025
706.772	404.426
706.900	405.197
707.028	403.189
707.156	402.189
707.285	402.303
707.413	396.852
707.541	396.090
707.669	398.828
707.797	400.525
707.925	395.582
708.053	396.377
708.181	399.852
708.310	392.500
708.438	399.762
708.566	391.369
708.694	391.926
708.822	395.500
708.950	393.975
709.078	385.623
709.206	391.607
709.335	389.123
709.463	380.803
709.591	389.041
709.719	385.475
709.847	380.811
709.975	380.508
710.103	379.656
710.231	381.057
710.360	379.139
710.488	368.639
710.616	375.049
710.744	376.459
710.872	374.238
711.000	378.000
711.128	369.516
711.256	370.008
711.385	370.852
711.513	369.098
711.641	367.820
711.769	369.984
711.897	365.689
712.025	363.770
712.153	365.172
712.281	366.213
712.410	367.107
712.538	363.975
712.666	364.779
712.794	362.877
712.922	355.287
713.050	359.631
713.178	358.754
713.306	361.066
713.435	356.115
713.563	353.451
713.691	354.148
713.819	357.361
713.947	349.254
714.075	352.672
714.203	350.508
714.331	351.098
714.460	348.238
714.588	351.352
714.716	345.959
714.844	345.008
714.972	343.705
715.100	345.803
715.228	346.697
715.356	340.352
715.485	343.279
715.613	344.738
715.741	337.467
715.869	339.656
715.997	336.656
716.125	336.131
716.253	338.131
716.381	339.377
716.510	338.787
716.638	335.508
716.766	334.648
716.894	339.066
717.022	332.328
717.150	332.139
717.278	332.951
717.406	334.672
717.535	328.582
717.663	331.730
717.791	331.066
717.919	326.238
718.047	327.057
718.175	326.828
718.303	328.459
718.431	324.672
718.560	329.926
718.688	322.803
718.816	324.230
718.944	325.016
719.072	324.803
719.200	322.934
719.328	320.369
719.456	322.492
719.585	319.041
719.713	321.713
719.841	317.566
719.969	318.426
720.097	316.016
720.225	316.361
720.353	314.303
720.481	313.705
720.610	312.918
720.738	310.770
720.866	312.352
720.994	311.557
721.122	315.582
721.250	310.369
721.378	307.910
721.506	310.746
721.635	307.066
721.763	307.164
721.891	307.787
722.019	303.369
722.147	305.779
722.275	304.656
722.403	304.180
722.531	301.803
722.660	302.713
722.788	302.230
722.916	299.967
723.044	298.221
723.172	300.246
723.300	300.910
723.428	300.590
723.556	296.533
723.685	298.139
723.813	295.213
723.941	294.541
724.069	293.680
724.197	294.189
724.325	291.844
724.453	290.336
724.581	288.557
724.710	289.934
724.838	293.262
724.966	285.213
725.094	287.197
725.222	286.951
725.350	285.270
725.478	283.730
725.606	286.033
725.735	284.049
725.863	284.033
725.991	275.311
726.119	281.934
726.247	282.107
726.375	280.090
726.503	276.484
726.631	281.443
726.760	275.205
726.888	278.836
727.016	272.598
727.144	278.205
727.272	273.525
727.400	272.361
727.528	269.238
727.656	271.811
727.785	269.467
727.913	272.385
728.041	269.246
728.169	272.820
728.297	268.459
728.425	267.779
728.553	267.451
728.681	264.926
728.810	265.943
728.938	261.000
729.066	265.213
729.194	264.254
729.322	259.607
729.450	260.787
729.578	264.746
729.706	259.000
729.835	263.689
729.963	257.541
730.091	252.197
730.219	256.623
730.347	257.557
730.475	254.172
730.603	255.246
730.731	256.557
730.860	253.533
730.988	249.566
731.116	249.418
731.244	252.910
731.372	252.033
731.500	248.852
731.628	247.738
731.756	247.795
731.885	249.607
732.013	246.410
732.141	249.811
732.269	249.131
732.397	247.893
732.525	247.295
732.653	246.295
732.781	247.172
732.910	245.582
733.038	242.221
733.166	243.820
733.294	244.156
733.422	243.803
733.550	239.328
733.678	239.836
733.806	241.025
733.935	243.615
734.063	240.262
734.191	240.811
734.319	233.844
734.447	239.566
734.575	236.008
734.703	236.508
734.831	235.934
734.960	234.451
735.088	233.738
735.216	235.623
735.344	232.902
735.472	232.336
735.600	232.566
735.728	234.107
735.856	229.336
735.985	227.377
736.113	233.221
736.241	232.902
736.369	232.623
736.497	231.123
736.625	231.213
736.753	231.230
736.881	229.090
737.010	229.246
737.138	226.287
737.266	228.934
737.394	226.098
737.522	228.951
737.650	226.328
737.778	226.098
737.906	223.811
738.035	223.943
738.163	226.098
738.291	222.525
738.419	220.041
738.547	220.197
738.675	220.754
738.803	220.369
738.931	220.254
739.060	222.598
739.188	218.033
739.316	218.598
739.444	218.893
739.572	219.303
739.700	216.303
739.828	220.459
739.956	216.820
740.085	215.393
740.213	216.574
740.341	213.443
740.469	213.270
740.597	213.582
740.725	214.885
740.853	215.279
740.981	213.115
741.110	212.254
741.238	215.025
741.366	212.607
741.494	213.992
741.622	210.008
741.750	210.975
741.878	212.164
742.006	208.525
742.135	209.820
742.263	212.180
742.391	205.746
742.519	212.066
742.647	209.377
742.775	210.295
742.903	207.918
743.031	209.221
743.160	208.631
743.288	203.402
743.416	206.869
743.544	201.541
743.672	205.041
743.800	201.566
743.928	205.443
744.056	202.418
744.185	205.369
744.313	202.025
744.441	203.090
744.569	201.861
744.697	201.410
744.825	202.156
744.953	201.410
745.081	201.172
745.210	200.074
745.338	200.762
745.466	198.361
745.594	200.344
745.722	199.016
745.850	197.779
745.978	199.434
746.106	198.123
746.235	197.221
746.363	196.582
746.491	195.336
746.619	195.451
746.747	196.402
746.875	194.893
747.003	196.090
747.131	193.525
747.260	192.303
747.388	194.746
747.516	198.713
747.644	189.934
747.772	192.762
747.900	194.336
748.028	194.189
748.156	188.861
748.285	190.639
748.413	189.672
748.541	189.787
748.669	189.033
748.797	187.164
748.925	189.721
749.053	187.475
749.181	187.934
749.310	188.525
749.438	188.574
749.566	186.779
749.694	190.377
749.822	188.451
749.950	187.049
750.078	186.557
750.206	184.705
750.335	185.025
750.463	184.500
750.591	185.984
750.719	184.770
750.847	182.008
750.975	179.844
751.103	183.467
751.231	181.418
751.360	182.008
751.488	180.836
751.616	180.975
751.744	179.549
751.872	180.008
752.000	180.123
752.128	179.811
752.256	178.287
752.385	179.148
752.513	178.959
752.641	175.607
752.769	181.648
752.897	178.074
753.025	175.779
753.153	178.475
753.281	174.713
753.410	178.984
753.538	176.828
753.666	177.902
753.794	178.664
753.922	174.902
754.050	173.320
754.178	173.689
754.306	173.025
754.435	176.115
754.563	172.492
754.691	173.500
754.819	171.943
754.947	175.303
755.075	173.926
755.203	173.746
755.331	171.869
755.460	170.910
755.588	173.926
755.716	171.025
755.844	170.361
755.972	173.033
756.100	171.918
756.228	171.689
756.356	168.066
756.485	170.205
756.613	173.361
756.741	166.180
756.869	169.475
756.997	168.148
757.125	169.197
757.253	168.508
757.381	167.156
757.510	166.959
757.638	170.795
757.766	168.623
757.894	165.295
758.022	165.770
758.150	166.434
758.278	166.828
758.406	163.164
758.535	165.385
758.663	164.762
758.791	165.213
758.919	165.992
759.047	164.639
759.175	165.590
759.303	163.295
759.431	164.279
759.560	163.254
759.688	161.148
759.816	162.992
759.944	163.057
760.072	160.984
760.200	161.467
760.328	163.984
760.456	161.205
760.585	159.705
760.713	159.984
760.841	160.230
760.969	160.648
761.097	158.803
761.225	160.631
761.353	160.164
761.481	159.680
761.610	158.820
761.738	158.615
761.866	160.475
761.994	157.557
762.122	155.336
762.250	158.287
762.378	157.049
762.506	156.475
762.635	157.648
762.763	156.205
762.891	155.303
763.019	157.238
763.147	155.033
763.275	155.352
763.403	153.508
763.531	153.664
763.660	153.852
763.788	154.148
763.916	153.648
764.044	153.492
764.172	154.123
764.300	152.844
764.428	152.746
764.556	153.336
764.685	152.230
764.813	150.992
764.941	152.557
765.069	150.779
765.197	152.320
765.325	148.082
765.453	150.082
765.581	151.762
765.710	151.172
765.838	150.689
765.966	148.844
766.094	147.992
766.222	150.557
766.350	149.869
766.478	149.189
766.606	150.221
766.735	147.811
766.863	148.336
766.991	148.664
767.119	147.861
767.247	147.639
767.375	145.410
767.503	145.361
767.631	147.410
767.760	146.000
767.888	147.434
768.016	146.311
768.144	145.918
768.272	147.074
768.400	146.885
768.528	145.779
768.656	145.795
768.785	143.320
768.913	145.090
769.041	145.098
769.169	144.352
769.297	144.402
769.425	143.402
769.553	145.164
769.681	145.016
769.810	144.705
769.938	142.787
770.066	142.852
770.194	144.156
770.322	144.000
770.450	144.221
770.578	141.631
770.706	141.770
770.835	141.459
770.963	143.016
771.091	141.107
771.219	142.262
771.347	143.107
771.475	143.008
771.603	141.131
771.731	142.246
771.860	139.844
771.988	140.352
772.116	138.820
772.244	140.541
772.372	139.467
772.500	140.254
772.628	139.689
772.756	138.279
772.885	140.139
773.013	140.041
773.141	138.254
773.269	138.451
773.397	138.189
773.525	139.828
773.653	137.902
773.781	137.697
773.910	137.148
774.038	137.492
774.166	138.492
774.294	138.361
774.422	136.238
774.550	136.631
774.678	137.926
774.806	135.566
774.935	137.336
775.063	135.639
775.191	137.861
775.319	137.254
775.447	136.311
775.575	135.459
775.703	137.074
775.831	134.000
775.960	133.385
776.088	134.459
776.216	135.262
776.344	135.254
776.472	137.418
776.600	136.246
776.728	132.787
776.856	133.090
776.985	134.402
777.113	134.131
777.241	134.189
777.369	133.180
777.497	131.664
777.625	132.574
777.753	133.246
777.881	133.779
778.010	133.557
778.138	134.230
778.266	130.959
778.394	131.451
778.522	132.566
778.650	131.852
778.778	131.738
778.906	131.344
779.035	131.557
779.163	130.426
779.291	131.336
779.419	130.943
779.547	133.393
779.675	132.451
779.803	131.467
779.931	130.451
780.060	131.246
780.188	131.279
780.316	130.869
780.444	131.705
780.572	128.820
780.700	130.730
780.828	130.352
780.956	129.951
781.085	128.139
781.213	128.713
781.341	130.213
781.469	130.123
781.597	129.393
781.725	128.730
781.853	129.549
781.981	128.648
782.110	128.861
782.238	129.369
782.366	129.189
782.494	127.189
782.622	127.869
782.750	128.754
782.878	126.516
783.006	129.467
783.135	127.049
783.263	126.336
783.391	126.943
783.519	125.303
783.647	125.639
783.775	126.566
783.903	127.631
784.031	126.033
784.160	126.639
784.288	125.615
784.416	125.328
784.544	124.992
784.672	125.443
784.800	126.672
784.928	124.910
785.056	124.172
785.185	124.852
785.313	125.057
785.441	125.115
785.569	126.098
785.697	126.189
785.825	125.107
785.953	125.992
786.081	123.459
786.210	124.066
786.338	125.402
786.466	123.451
786.594	122.607
786.722	123.541
786.850	124.369
786.978	122.926
787.106	123.344
787.235	122.902
787.363	123.500
787.491	122.984
787.619	123.139
787.747	122.549
787.875	122.713
788.003	123.230
788.131	120.377
788.260	121.984
788.388	123.057
788.516	120.828
788.644	122.721
788.772	120.869
788.900	123.041
789.028	120.721
789.156	123.139
789.285	121.566
789.413	119.697
789.541	122.779
789.669	120.311
789.797	119.451
789.925	123.451
790.053	122.598
790.181	120.082
790.310	119.992
790.438	120.664
790.566	120.344
790.694	120.254
790.822	121.451
790.950	120.746
791.078	120.402
791.206	119.377
791.335	120.492
791.463	119.943
791.591	119.139
791.719	121.238
791.847	119.459
791.975	118.516
792.103	118.410
792.231	119.803
792.360	119.213
792.488	117.533
792.616	118.820
792.744	117.754
792.872	117.910
793.000	117.762
793.128	118.738
793.256	118.402
793.385	117.180
793.513	119.082
793.641	120.041
793.769	117.385
793.897	118.426
794.025	117.730
794.153	117.574
794.281	118.959
794.410	118.180
794.538	118.016
794.666	118.746
794.794	117.238
794.922	117.369
795.050	117.861
795.178	118.074
795.306	115.180
795.435	116.664
795.563	116.803
795.691	116.000
795.819	117.090
795.947	116.418
796.075	116.975
796.203	117.180
796.331	116.410
796.460	116.533
796.588	116.066
796.716	116.279
796.844	116.287
796.972	117.041
797.100	115.205
797.228	116.656
797.356	115.492
797.485	115.016
797.613	114.672
797.741	115.008
797.869	115.992
797.997	115.352
798.125	115.533
798.253	117.115
798.381	115.984
798.510	116.041
798.638	114.467
798.766	114.869
798.894	114.434
799.022	114.705
799.150	114.336
799.278	114.098
799.406	115.000
799.535	115.066
799.663	114.754
799.791	114.869
799.919	114.566
800.047	114.803
800.175	114.393
800.303	113.615
800.431	114.115
800.560	113.279
800.688	113.189
800.816	114.246
800.944	114.279
801.072	114.418
801.200	114.926
801.328	113.877
801.456	114.836
801.585	114.098
801.713	114.508
801.841	114.844
801.969	114.189
802.097	114.057
802.225	113.615
802.353	114.508
802.481	113.967
802.610	113.475
802.738	112.934
802.866	113.254
802.994	113.811
803.122	113.418
803.250	114.148
803.378	113.025
803.506	113.139
803.635	114.098
803.763	112.418
803.891	114.049
804.019	113.205
804.147	113.934
804.275	112.738
804.403	112.508
804.531	113.180
804.660	111.303
804.788	112.844
804.916	112.648
805.044	111.270
805.172	113.254
805.300	110.951
805.428	112.156
805.556	112.656
805.685	113.680
805.813	113.139
805.941	111.402
806.069	112.221
806.197	112.607
806.325	111.836
806.453	112.344
806.581	112.631
806.710	111.311
806.838	110.082
806.966	111.418
807.094	111.320
807.222	111.156
807.350	112.016
807.478	111.680
807.606	109.811
807.735	110.844
807.863	112.770
807.991	111.213
808.119	111.393
808.247	110.656
808.375	111.467
808.503	111.434
808.631	111.836
808.760	111.500
808.888	111.008
809.016	110.713
809.144	112.230
809.272	111.451
809.400	112.057
809.528	111.025
809.656	111.426
809.785	109.762
809.913	110.484
810.041	110.467
810.169	109.598
810.297	110.730
810.425	111.893
810.553	109.131
810.681	110.893
810.810	111.016
810.938	110.852
811.066	108.893
811.194	109.090
811.322	110.262
811.450	110.566
811.578	110.287
811.706	110.213
811.835	109.287
811.963	110.098
812.091	110.541
812.219	110.795
812.347	109.451
812.475	110.689
812.603	110.664
812.731	108.279
812.860	110.795
812.988	110.311
813.116	110.033
813.244	110.451
813.372	110.016
813.500	109.574
813.628	110.648
813.756	108.779
813.885	110.148
814.013	108.721
814.141	110.369
814.269	109.254
814.397	109.746
814.525	108.869
814.653	109.254
814.781	108.639
814.910	109.352
815.038	109.451
815.166	110.156
815.294	108.311
815.422	109.918
815.550	108.680
815.678	108.279
815.806	109.525
815.935	108.803
816.063	108.762
816.191	108.287
816.319	109.287
816.447	110.074
816.575	109.164
816.703	108.402
816.831	109.262
816.960	109.828
817.088	108.549
817.216	108.582
817.344	108.943
817.472	110.000
817.600	108.877
817.728	107.820
817.856	108.943
817.985	108.664
818.113	108.664
818.241	108.795
818.369	108.041
818.497	109.008
818.625	107.943
818.753	108.172
818.881	108.631
819.010	108.738
819.138	108.295
819.266	108.492
819.394	108.672
819.522	105.828
819.650	108.475
819.778	107.467
819.906	107.672
820.035	107.975
820.163	108.189
820.291	107.402
820.419	106.967
820.547	109.041
820.675	107.639
820.803	108.025
820.931	107.992
821.060	105.869
821.188	108.615
821.316	108.500
821.444	108.139
821.572	107.631
821.700	107.918
821.828	108.246
821.956	107.066
822.085	107.885
822.213	108.115
822.341	107.320
822.469	106.721
822.597	106.664
822.725	106.410
822.853	106.795
822.981	106.992
823.110	108.074
823.238	106.541
823.366	107.533
823.494	106.172
823.622	106.303
823.750	107.328
823.878	105.287
824.006	107.902
824.135	107.803
824.263	107.541
824.391	106.516
824.519	107.828
824.647	107.705
824.775	107.910
824.903	108.861
825.031	107.746
825.160	108.213
825.288	107.385
825.416	107.377
825.544	107.205
825.672	107.770
825.800	107.418
825.928	107.287
826.056	106.803
826.185	107.172
826.313	107.705
826.441	106.361
826.569	106.295
826.697	106.984
826.825	105.787
826.953	107.131
827.081	105.549
827.210	106.836
827.338	105.582
827.466	105.656
827.594	107.320
827.722	107.393
827.850	107.336
827.978	106.418
828.106	107.041
828.235	107.254
828.363	107.311
828.491	106.992
828.619	105.754
828.747	106.811
828.875	106.893
829.003	106.918
829.131	107.238
829.260	107.311
829.388	106.082
829.516	106.992
829.644	105.869
829.772	107.869
829.900	106.648
830.028	106.754
830.156	105.820
830.285	106.582
830.413	106.811
830.541	106.680
830.669	106.098
830.797	106.582
830.925	106.066
831.053	105.451
831.181	106.066
831.310	106.189
831.438	105.951
831.566	106.746
831.694	105.475
831.822	106.074
831.950	105.705
832.078	107.107
832.206	106.262
832.335	105.566
832.463	106.697
832.591	106.057
832.719	105.992
832.847	105.869
832.975	105.820
833.103	106.369
833.231	106.320
833.360	106.385
833.488	106.385
833.616	106.180
833.744	104.344
833.872	106.320
834.000	106.697
834.128	106.607
834.256	105.434
834.385	104.426
834.513	107.746
834.641	104.779
834.769	105.336
834.897	105.811
835.025	105.500
835.153	104.967
835.281	105.295
835.410	106.172
835.538	105.623
835.666	105.582
835.794	105.287
835.922	106.008
836.050	105.246
836.178	105.262
836.306	105.189
836.435	105.131
836.563	105.533
836.691	106.074
836.819	106.197
836.947	104.648
837.075	106.098
837.203	105.156
837.331	105.803
837.460	105.557
837.588	105.049
837.716	106.148
837.844	106.172
837.972	105.041
838.100	105.402
838.228	104.984
838.356	104.189
838.485	103.869
838.613	105.197
838.741	106.434
838.869	105.516
838.997	106.090
839.125	103.697
839.253	104.746
839.381	105.541
839.510	105.320
839.638	104.877
839.766	104.885
839.894	105.230
840.022	105.475
840.150	105.566
840.278	104.631
840.406	105.459
840.535	105.713
840.663	104.123
840.791	103.820
840.919	104.680
841.047	104.844
841.175	105.418
841.303	104.926
841.431	104.967
841.560	105.287
841.688	105.262
841.816	104.877
841.944	104.041
842.072	105.262
842.200	104.770
842.328	105.016
842.456	105.746
842.585	105.295
842.713	104.787
842.841	104.361
842.969	104.951
843.097	105.459
843.225	104.951
843.353	105.082
843.481	104.139
843.610	104.303
843.738	103.484
843.866	104.918
