90-80-90_at_679.99nm_cut_at_1253.00Y_01.dat
24.01.2024
13:27:31
cut middle at Y: 1253.00
top cursor: 1313 down cursor: 1193 mean of: 120 lines , 2560 datapoints
wavelength(nm)	intensity[arb. units]
515.994	1126.042
516.122	1064.317
516.250	1043.642
516.378	1036.667
516.506	1032.267
516.635	1034.208
516.763	1022.192
516.891	1044.858
517.019	1035.592
517.147	1030.167
517.275	1036.150
517.403	1033.050
517.531	1034.083
517.660	1035.725
517.788	1032.367
517.916	1037.567
518.044	1033.892
518.172	1046.408
518.300	1038.892
518.428	1037.275
518.556	1039.767
518.685	1037.517
518.813	1040.358
518.941	1057.042
519.069	1045.292
519.197	1051.142
519.325	1051.700
519.453	1052.942
519.581	1049.700
519.710	1045.825
519.838	1053.308
519.966	1058.683
520.094	1058.675
520.222	1055.267
520.350	1057.475
520.478	1058.700
520.606	1070.425
520.735	1060.450
520.863	1071.858
520.991	1069.392
521.119	1078.725
521.247	1080.950
521.375	1077.475
521.503	1086.550
521.631	1075.100
521.760	1079.017
521.888	1092.942
522.016	1086.408
522.144	1094.108
522.272	1091.758
522.400	1099.517
522.528	1093.275
522.656	1099.550
522.785	1111.558
522.913	1092.900
523.041	1098.800
523.169	1094.325
523.297	1088.950
523.425	1093.675
523.553	1098.392
523.681	1092.633
523.810	1098.858
523.938	1105.033
524.066	1098.150
524.194	1098.117
524.322	1094.942
524.450	1097.108
524.578	1093.883
524.706	1098.075
524.835	1093.158
524.963	1091.692
525.091	1089.433
525.219	1097.608
525.347	1087.717
525.475	1092.183
525.603	1100.167
525.731	1095.883
525.860	1093.792
525.988	1085.617
526.116	1093.892
526.244	1094.758
526.372	1082.017
526.500	1089.742
526.628	1104.442
526.756	1096.467
526.885	1102.175
527.013	1089.783
527.141	1105.467
527.269	1097.392
527.397	1096.933
527.525	1096.467
527.653	1093.158
527.781	1103.542
527.910	1101.517
528.038	1108.808
528.166	1106.817
528.294	1107.908
528.422	1112.008
528.550	1107.967
528.678	1111.283
528.806	1109.442
528.935	1106.733
529.063	1110.158
529.191	1115.092
529.319	1113.217
529.447	1114.642
529.575	1117.033
529.703	1118.083
529.831	1111.183
529.960	1118.275
530.088	1120.583
530.216	1122.808
530.344	1106.325
530.472	1117.892
530.600	1116.433
530.728	1117.300
530.856	1119.575
530.985	1116.125
531.113	1109.850
531.241	1118.458
531.369	1111.533
531.497	1114.017
531.625	1111.442
531.753	1110.975
531.881	1112.033
532.010	1110.758
532.138	1111.242
532.266	1111.233
532.394	1120.617
532.522	1105.175
532.650	1113.742
532.778	1118.008
532.906	1112.417
533.035	1104.342
533.163	1104.458
533.291	1099.158
533.419	1094.342
533.547	1098.092
533.675	1100.300
533.803	1094.858
533.931	1089.042
534.060	1098.525
534.188	1090.750
534.316	1097.875
534.444	1090.392
534.572	1097.942
534.700	1096.608
534.828	1087.967
534.956	1088.633
535.085	1096.008
535.213	1096.042
535.341	1096.158
535.469	1093.183
535.597	1091.917
535.725	1103.758
535.853	1103.108
535.981	1095.333
536.110	1101.267
536.238	1104.800
536.366	1111.608
536.494	1108.500
536.622	1108.708
536.750	1110.067
536.878	1119.333
537.006	1127.408
537.135	1122.375
537.263	1122.583
537.391	1128.367
537.519	1130.617
537.647	1133.758
537.775	1123.842
537.903	1130.067
538.031	1141.600
538.160	1137.675
538.288	1143.383
538.416	1148.500
538.544	1142.692
538.672	1148.575
538.800	1149.575
538.928	1150.217
539.056	1155.525
539.185	1156.250
539.313	1146.358
539.441	1153.467
539.569	1153.717
539.697	1149.275
539.825	1156.792
539.953	1146.625
540.081	1158.108
540.210	1149.150
540.338	1160.483
540.466	1157.600
540.594	1162.983
540.722	1153.258
540.850	1155.742
540.978	1150.167
541.106	1155.742
541.235	1154.275
541.363	1145.167
541.491	1152.875
541.619	1136.433
541.747	1136.400
541.875	1140.850
542.003	1141.133
542.131	1147.675
542.260	1135.633
542.388	1146.492
542.516	1137.408
542.644	1133.067
542.772	1127.108
542.900	1131.750
543.028	1133.542
543.156	1124.917
543.285	1127.692
543.413	1124.958
543.541	1131.567
543.669	1128.800
543.797	1132.608
543.925	1127.850
544.053	1132.500
544.181	1132.400
544.310	1127.475
544.438	1133.092
544.566	1127.725
544.694	1126.133
544.822	1130.717
544.950	1133.200
545.078	1120.975
545.206	1116.267
545.335	1133.375
545.463	1118.900
545.591	1121.958
545.719	1128.692
545.847	1131.650
545.975	1120.767
546.103	1123.058
546.231	1119.175
546.360	1122.925
546.488	1127.842
546.616	1127.442
546.744	1129.475
546.872	1124.158
547.000	1123.142
547.128	1126.708
547.256	1124.050
547.385	1124.867
547.513	1116.975
547.641	1126.300
547.769	1126.517
547.897	1122.425
548.025	1132.042
548.153	1131.150
548.281	1116.258
548.410	1126.667
548.538	1123.575
548.666	1127.033
548.794	1122.292
548.922	1120.883
549.050	1118.517
549.178	1121.583
549.306	1124.508
549.435	1123.500
549.563	1117.342
549.691	1104.700
549.819	1120.825
549.947	1119.350
550.075	1119.442
550.203	1117.183
550.331	1117.842
550.460	1116.508
550.588	1104.517
550.716	1117.483
550.844	1108.592
550.972	1110.492
551.100	1097.367
551.228	1107.908
551.356	1094.100
551.485	1100.350
551.613	1097.592
551.741	1094.717
551.869	1094.333
551.997	1077.467
552.125	1092.550
552.253	1078.850
552.381	1079.175
552.510	1083.475
552.638	1080.483
552.766	1078.492
552.894	1063.858
553.022	1063.625
553.150	1071.592
553.278	1064.083
553.406	1070.175
553.535	1069.375
553.663	1058.175
553.791	1066.108
553.919	1060.417
554.047	1057.150
554.175	1062.600
554.303	1053.717
554.431	1051.625
554.560	1047.792
554.688	1059.408
554.816	1052.167
554.944	1048.533
555.072	1047.700
555.200	1049.617
555.328	1045.900
555.456	1047.692
555.585	1048.800
555.713	1046.342
555.841	1043.725
555.969	1045.308
556.097	1051.825
556.225	1037.125
556.353	1046.042
556.481	1042.183
556.610	1051.175
556.738	1047.525
556.866	1042.833
556.994	1042.133
557.122	1037.642
557.250	1041.317
557.378	1040.167
557.506	1051.250
557.635	1034.792
557.763	1044.883
557.891	1053.858
558.019	1039.550
558.147	1046.683
558.275	1049.992
558.403	1046.908
558.531	1037.867
558.660	1037.858
558.788	1037.017
558.916	1041.933
559.044	1034.200
559.172	1036.958
559.300	1048.908
559.428	1034.533
559.556	1043.342
559.685	1042.958
559.813	1035.942
559.941	1044.925
560.069	1036.425
560.197	1041.675
560.325	1044.300
560.453	1037.333
560.581	1040.983
560.710	1023.775
560.838	1034.992
560.966	1032.817
561.094	1038.400
561.222	1029.758
561.350	1028.408
561.478	1021.350
561.606	1022.692
561.735	1017.200
561.863	1014.742
561.991	1029.308
562.119	1015.550
562.247	1015.783
562.375	1017.792
562.503	1018.908
562.631	1008.242
562.760	1007.325
562.888	1005.425
563.016	1003.783
563.144	1008.525
563.272	1001.583
563.400	994.292
563.528	999.900
563.656	1004.967
563.785	993.833
563.913	987.117
564.041	997.317
564.169	984.883
564.297	992.700
564.425	988.025
564.553	995.825
564.681	990.183
564.810	976.975
564.938	987.775
565.066	973.150
565.194	985.858
565.322	988.592
565.450	978.767
565.578	985.833
565.706	977.475
565.835	981.300
565.963	973.942
566.091	979.225
566.219	982.775
566.347	974.767
566.475	973.625
566.603	969.650
566.731	970.050
566.860	971.250
566.988	973.817
567.116	979.675
567.244	972.525
567.372	984.208
567.500	978.450
567.628	977.117
567.756	980.692
567.885	974.625
568.013	976.950
568.141	976.917
568.269	977.492
568.397	975.000
568.525	974.483
568.653	978.192
568.781	977.025
568.910	977.717
569.038	979.625
569.166	978.192
569.294	975.300
569.422	977.425
569.550	982.208
569.678	975.900
569.806	977.800
569.935	979.883
570.063	977.250
570.191	977.575
570.319	977.733
570.447	973.675
570.575	983.692
570.703	989.908
570.831	984.442
570.960	973.225
571.088	980.217
571.216	972.325
571.344	983.758
571.472	979.433
571.600	984.458
571.728	979.633
571.856	973.425
571.985	974.600
572.113	975.825
572.241	978.317
572.369	980.500
572.497	969.233
572.625	976.767
572.753	971.850
572.881	966.867
573.010	976.275
573.138	976.317
573.266	976.150
573.394	971.550
573.522	975.600
573.650	974.192
573.778	969.717
573.906	974.558
574.035	963.383
574.163	966.175
574.291	970.942
574.419	970.208
574.547	964.467
574.675	961.533
574.803	960.450
574.931	953.458
575.060	952.100
575.188	956.192
575.316	951.008
575.444	951.175
575.572	951.192
575.700	947.842
575.828	948.267
575.956	950.625
576.085	930.850
576.213	947.725
576.341	930.183
576.469	935.908
576.597	932.283
576.725	936.217
576.853	930.750
576.981	933.958
577.110	931.267
577.238	930.075
577.366	924.525
577.494	920.250
577.622	921.792
577.750	922.008
577.878	912.483
578.006	923.400
578.135	917.392
578.263	908.833
578.391	919.300
578.519	904.475
578.647	904.200
578.775	899.375
578.903	898.858
579.031	905.158
579.160	896.925
579.288	889.825
579.416	895.358
579.544	895.917
579.672	889.625
579.800	892.650
579.928	889.283
580.056	883.875
580.185	891.033
580.313	893.283
580.441	888.025
580.569	886.867
580.697	881.775
580.825	883.842
580.953	890.883
581.081	882.117
581.210	879.100
581.338	879.650
581.466	884.183
581.594	881.983
581.722	875.733
581.850	880.192
581.978	877.092
582.106	877.008
582.235	879.267
582.363	870.425
582.491	877.800
582.619	866.200
582.747	875.675
582.875	874.425
583.003	881.283
583.131	878.442
583.260	881.633
583.388	885.200
583.516	872.125
583.644	874.733
583.772	882.942
583.900	879.417
584.028	876.842
584.156	875.150
584.285	874.467
584.413	880.208
584.541	888.258
584.669	883.275
584.797	878.942
584.925	877.400
585.053	879.842
585.181	880.542
585.310	885.050
585.438	886.375
585.566	880.833
585.694	887.750
585.822	886.167
585.950	884.500
586.078	884.883
586.206	881.117
586.335	883.158
586.463	893.442
586.591	893.292
586.719	887.733
586.847	893.958
586.975	881.908
587.103	886.292
587.231	878.292
587.360	879.825
587.488	882.458
587.616	880.467
587.744	881.067
587.872	877.533
588.000	877.092
588.128	882.025
588.256	885.092
588.385	877.475
588.513	877.775
588.641	882.508
588.769	880.508
588.897	879.517
589.025	875.667
589.153	870.575
589.281	868.708
589.410	877.283
589.538	867.775
589.666	875.233
589.794	868.425
589.922	867.883
590.050	868.967
590.178	858.867
590.306	864.583
590.435	868.167
590.563	861.567
590.691	864.017
590.819	856.067
590.947	865.842
591.075	860.217
591.203	859.267
591.331	861.717
591.460	856.308
591.588	849.600
591.716	861.433
591.844	861.825
591.972	861.883
592.100	858.833
592.228	844.533
592.356	854.775
592.485	838.692
592.613	849.233
592.741	846.533
592.869	843.158
592.997	855.842
593.125	856.083
593.253	854.042
593.381	850.992
593.510	852.967
593.638	842.975
593.766	850.392
593.894	847.100
594.022	843.650
594.150	847.250
594.278	850.025
594.406	848.450
594.535	844.433
594.663	838.883
594.791	847.033
594.919	840.867
595.047	849.542
595.175	841.592
595.303	846.508
595.431	839.650
595.560	850.092
595.688	847.917
595.816	845.150
595.944	840.358
596.072	850.567
596.200	844.108
596.328	845.792
596.456	846.500
596.585	843.517
596.713	855.133
596.841	843.925
596.969	846.592
597.097	847.267
597.225	851.875
597.353	850.042
597.481	848.258
597.610	849.608
597.738	851.458
597.866	839.750
597.994	850.742
598.122	856.300
598.250	850.075
598.378	848.658
598.506	849.633
598.635	852.625
598.763	849.300
598.891	851.325
599.019	858.467
599.147	851.750
599.275	845.892
599.403	854.467
599.531	854.192
599.660	848.867
599.788	855.208
599.916	845.908
600.044	844.275
600.172	846.242
600.300	851.425
600.428	849.667
600.556	854.492
600.685	857.617
600.813	853.483
600.941	860.467
601.069	853.625
601.197	866.383
601.325	857.300
601.453	858.183
601.581	859.850
601.710	854.492
601.838	867.450
601.966	860.958
602.094	867.450
602.222	857.683
602.350	863.033
602.478	854.967
602.606	871.608
602.735	861.467
602.863	873.975
602.991	864.642
603.119	865.525
603.247	868.075
603.375	862.242
603.503	864.758
603.631	869.300
603.760	872.783
603.888	871.833
604.016	873.983
604.144	871.675
604.272	873.700
604.400	877.800
604.528	874.150
604.656	874.775
604.785	876.258
604.913	880.900
605.041	882.725
605.169	875.350
605.297	882.175
605.425	875.842
605.553	885.900
605.681	870.350
605.810	879.583
605.938	878.175
606.066	876.200
606.194	884.050
606.322	876.333
606.450	884.042
606.578	880.592
606.706	883.158
606.835	886.492
606.963	890.158
607.091	883.350
607.219	878.742
607.347	876.408
607.475	888.225
607.603	880.483
607.731	879.467
607.860	873.150
607.988	880.208
608.116	876.433
608.244	879.400
608.372	883.317
608.500	878.058
608.628	874.767
608.756	882.050
608.885	880.258
609.013	870.433
609.141	867.567
609.269	877.333
609.397	870.750
609.525	873.875
609.653	873.000
609.781	869.767
609.910	861.550
610.038	872.358
610.166	872.100
610.294	859.633
610.422	869.317
610.550	860.792
610.678	862.317
610.806	866.450
610.935	868.375
611.063	866.258
611.191	863.175
611.319	870.300
611.447	860.917
611.575	859.592
611.703	851.925
611.831	867.508
611.960	859.517
612.088	861.717
612.216	855.475
612.344	857.883
612.472	855.775
612.600	862.833
612.728	855.508
612.856	855.300
612.985	850.567
613.113	854.983
613.241	863.067
613.369	855.450
613.497	856.267
613.625	868.075
613.753	857.258
613.881	860.133
614.010	861.950
614.138	858.983
614.266	851.883
614.394	855.608
614.522	854.275
614.650	856.167
614.778	852.000
614.906	864.325
615.035	851.467
615.163	843.933
615.291	863.625
615.419	858.617
615.547	851.083
615.675	860.817
615.803	856.600
615.931	860.567
616.060	857.067
616.188	859.150
616.316	854.942
616.444	864.142
616.572	855.133
616.700	854.083
616.828	858.408
616.956	869.950
617.085	866.900
617.213	864.892
617.341	860.058
617.469	860.900
617.597	873.350
617.725	863.225
617.853	862.308
617.981	867.242
618.110	874.700
618.238	882.008
618.366	876.158
618.494	879.217
618.622	870.725
618.750	879.000
618.878	875.317
619.006	871.783
619.135	892.533
619.263	879.342
619.391	883.033
619.519	880.533
619.647	893.775
619.775	889.217
619.903	889.875
620.031	888.117
620.160	887.642
620.288	893.642
620.416	899.458
620.544	898.625
620.672	897.708
620.800	896.758
620.928	903.083
621.056	900.850
621.185	901.117
621.313	899.558
621.441	903.358
621.569	911.350
621.697	905.733
621.825	909.033
621.953	907.233
622.081	913.158
622.210	909.100
622.338	909.733
622.466	907.417
622.594	916.425
622.722	920.975
622.850	919.733
622.978	931.150
623.106	914.442
623.235	919.183
623.363	927.225
623.491	912.433
623.619	921.808
623.747	919.875
623.875	926.500
624.003	920.058
624.131	919.550
624.260	922.167
624.388	921.733
624.516	932.092
624.644	918.108
624.772	919.608
624.900	919.400
625.028	916.033
625.156	922.858
625.285	927.875
625.413	927.583
625.541	923.083
625.669	920.875
625.797	926.708
625.925	930.017
626.053	920.617
626.181	927.217
626.310	922.400
626.438	930.150
626.566	927.008
626.694	926.617
626.822	921.967
626.950	926.217
627.078	931.450
627.206	922.317
627.335	929.775
627.463	920.817
627.591	929.050
627.719	927.158
627.847	927.400
627.975	926.300
628.103	919.567
628.231	929.842
628.360	920.583
628.488	936.100
628.616	929.208
628.744	926.608
628.872	930.900
629.000	927.458
629.128	926.058
629.256	929.867
629.385	929.858
629.513	918.600
629.641	928.058
629.769	929.467
629.897	927.425
630.025	921.375
630.153	933.617
630.281	920.642
630.410	926.325
630.538	933.283
630.666	924.558
630.794	918.667
630.922	921.917
631.050	922.100
631.178	932.833
631.306	926.942
631.435	931.008
631.563	934.000
631.691	921.083
631.819	932.842
631.947	935.383
632.075	928.033
632.203	931.717
632.331	926.308
632.460	922.617
632.588	930.983
632.716	930.200
632.844	928.767
632.972	929.533
633.100	928.950
633.228	930.208
633.356	924.967
633.485	932.275
633.613	931.492
633.741	927.875
633.869	928.508
633.997	930.750
634.125	920.350
634.253	920.067
634.381	919.375
634.510	924.975
634.638	919.708
634.766	916.175
634.894	920.200
635.022	914.625
635.150	914.583
635.278	927.258
635.406	922.758
635.535	924.375
635.663	919.900
635.791	921.933
635.919	921.008
636.047	915.408
636.175	921.325
636.303	924.492
636.431	920.392
636.560	920.408
636.688	917.892
636.816	917.067
636.944	914.975
637.072	919.658
637.200	917.158
637.328	913.642
637.456	926.717
637.585	912.833
637.713	921.933
637.841	913.925
637.969	917.583
638.097	910.508
638.225	920.633
638.353	925.617
638.481	916.625
638.610	922.133
638.738	922.383
638.866	913.950
638.994	924.267
639.122	907.750
639.250	919.317
639.378	920.083
639.506	921.017
639.635	923.467
639.763	921.133
639.891	921.025
640.019	922.675
640.147	921.617
640.275	918.067
640.403	914.692
640.531	911.883
640.660	913.550
640.788	924.917
640.916	918.092
641.044	930.233
641.172	924.808
641.300	929.542
641.428	919.575
641.556	926.625
641.685	919.717
641.813	921.608
641.941	923.733
642.069	929.375
642.197	929.658
642.325	922.250
642.453	930.750
642.581	925.317
642.710	920.542
642.838	931.992
642.966	932.908
643.094	923.883
643.222	926.583
643.350	922.367
643.478	936.267
643.606	938.550
643.735	933.667
643.863	924.958
643.991	935.625
644.119	935.558
644.247	928.442
644.375	927.750
644.503	935.425
644.631	933.767
644.760	933.692
644.888	936.267
645.016	939.908
645.144	944.842
645.272	925.942
645.400	935.442
645.528	929.475
645.656	920.192
645.785	936.917
645.913	930.508
646.041	940.275
646.169	924.650
646.297	926.933
646.425	933.650
646.553	927.492
646.681	926.200
646.810	928.708
646.938	938.650
647.066	924.425
647.194	925.533
647.322	912.800
647.450	926.092
647.578	925.692
647.706	919.150
647.835	922.392
647.963	928.183
648.091	921.700
648.219	925.775
648.347	916.767
648.475	920.150
648.603	918.058
648.731	917.267
648.860	914.367
648.988	917.817
649.116	921.183
649.244	909.217
649.372	912.350
649.500	908.508
649.628	910.825
649.756	907.967
649.885	896.683
650.013	899.650
650.141	900.250
650.269	901.867
650.397	900.467
650.525	886.942
650.653	896.325
650.781	893.342
650.910	889.500
651.038	884.508
651.166	889.192
651.294	885.208
651.422	880.575
651.550	876.283
651.678	870.892
651.806	877.583
651.935	880.600
652.063	866.267
652.191	874.158
652.319	867.967
652.447	864.717
652.575	868.725
652.703	860.792
652.831	859.525
652.960	857.358
653.088	861.867
653.216	859.550
653.344	853.125
653.472	854.383
653.600	856.025
653.728	858.333
653.856	845.942
653.985	857.125
654.113	849.525
654.241	849.575
654.369	843.208
654.497	852.017
654.625	845.292
654.753	849.075
654.881	849.017
655.010	845.892
655.138	840.117
655.266	835.950
655.394	836.483
655.522	829.892
655.650	830.725
655.778	833.333
655.906	837.458
656.035	835.775
656.163	833.767
656.291	831.275
656.419	833.675
656.547	834.100
656.675	826.508
656.803	831.075
656.931	830.467
657.060	831.442
657.188	827.783
657.316	822.942
657.444	820.333
657.572	824.392
657.700	825.550
657.828	830.958
657.956	831.425
658.085	834.658
658.213	816.300
658.341	825.917
658.469	827.167
658.597	824.150
658.725	826.292
658.853	812.792
658.981	815.758
659.110	819.975
659.238	816.925
659.366	810.917
659.494	817.517
659.622	807.842
659.750	821.008
659.878	815.492
660.006	815.675
660.135	815.767
660.263	811.125
660.391	802.950
660.519	811.925
660.647	809.292
660.775	806.608
660.903	812.208
661.031	804.558
661.160	807.183
661.288	806.525
661.416	810.975
661.544	803.225
661.672	803.300
661.800	809.917
661.928	802.267
662.056	799.133
662.185	797.525
662.313	796.583
662.441	800.658
662.569	797.325
662.697	798.717
662.825	798.667
662.953	795.108
663.081	788.225
663.210	792.042
663.338	796.200
663.466	791.492
663.594	790.325
663.722	783.617
663.850	790.700
663.978	785.567
664.106	787.050
664.235	784.008
664.363	781.608
664.491	787.167
664.619	785.858
664.747	783.175
664.875	782.692
665.003	782.825
665.131	783.958
665.260	779.483
665.388	773.617
665.516	775.192
665.644	774.350
665.772	776.217
665.900	775.775
666.028	776.067
666.156	785.292
666.285	778.350
666.413	770.675
666.541	774.317
666.669	771.683
666.797	770.158
666.925	766.150
667.053	775.292
667.181	763.867
667.310	761.767
667.438	761.583
667.566	759.450
667.694	753.942
667.822	760.017
667.950	764.508
668.078	755.883
668.206	760.075
668.335	762.983
668.463	765.150
668.591	754.167
668.719	752.408
668.847	751.342
668.975	748.317
669.103	755.700
669.231	757.683
669.360	754.192
669.488	753.650
669.616	752.308
669.744	748.142
669.872	737.092
670.000	753.867
670.128	743.692
670.256	744.217
670.385	743.167
670.513	749.858
670.641	741.942
670.769	739.908
670.897	744.342
671.025	730.158
671.153	740.808
671.281	745.675
671.410	740.592
671.538	732.450
671.666	734.725
671.794	736.417
671.922	730.642
672.050	728.900
672.178	725.983
672.306	726.808
672.435	725.992
672.563	730.108
672.691	725.033
672.819	724.575
672.947	722.225
673.075	719.792
673.203	713.233
673.331	712.583
673.460	715.025
673.588	709.425
673.716	716.092
673.844	713.467
673.972	713.092
674.100	714.967
674.228	712.592
674.356	707.625
674.485	706.958
674.613	695.142
674.741	701.325
674.869	701.233
674.997	693.150
675.125	696.917
675.253	690.483
675.381	693.450
675.510	689.550
675.638	691.550
675.766	690.833
675.894	684.450
676.022	683.908
676.150	683.258
676.278	676.700
676.406	681.425
676.535	678.792
676.663	676.175
676.791	673.525
676.919	669.183
677.047	677.408
677.175	666.733
677.303	670.950
677.431	673.958
677.560	665.267
677.688	662.433
677.816	661.667
677.944	662.733
678.072	660.600
678.200	661.367
678.328	659.333
678.456	650.267
678.585	651.725
678.713	655.167
678.841	649.300
678.969	651.600
679.097	649.633
679.225	647.417
679.353	648.958
679.481	643.933
679.610	650.758
679.738	641.800
679.866	645.258
679.994	640.250
680.122	637.092
680.250	638.617
680.378	634.508
680.506	634.433
680.635	636.775
680.763	631.992
680.891	630.642
681.019	624.067
681.147	627.142
681.275	619.483
681.403	625.317
681.531	630.550
681.660	623.600
681.788	621.883
681.916	613.583
682.044	624.825
682.172	612.700
682.300	607.000
682.428	617.017
682.556	613.200
682.685	615.483
682.813	614.450
682.941	607.583
683.069	602.450
683.197	612.183
683.325	604.642
683.453	600.483
683.581	602.908
683.710	597.508
683.838	597.592
683.966	598.317
684.094	602.717
684.222	605.517
684.350	596.083
684.478	599.817
684.606	597.058
684.735	591.767
684.863	592.283
684.991	588.408
685.119	596.150
685.247	586.700
685.375	590.708
685.503	592.217
685.631	588.592
685.760	591.192
685.888	586.925
686.016	586.658
686.144	584.525
686.272	580.175
686.400	582.825
686.528	583.458
686.656	586.458
686.785	579.050
686.913	582.742
687.041	582.750
687.169	583.125
687.297	578.808
687.425	579.117
687.553	574.992
687.681	585.575
687.810	577.525
687.938	575.908
688.066	572.017
688.194	572.808
688.322	572.958
688.450	570.242
688.578	569.342
688.706	576.683
688.835	567.742
688.963	568.750
689.091	570.425
689.219	563.975
689.347	562.567
689.475	567.025
689.603	560.025
689.731	567.233
689.860	566.225
689.988	564.408
690.116	567.133
690.244	569.942
690.372	562.283
690.500	558.208
690.628	559.358
690.756	563.175
690.885	553.225
691.013	561.075
691.141	558.083
691.269	558.633
691.397	561.650
691.525	550.367
691.653	554.717
691.781	551.267
691.910	556.250
692.038	550.400
692.166	550.883
692.294	548.925
692.422	550.350
692.550	553.150
692.678	541.542
692.806	544.700
692.935	549.025
693.063	540.983
693.191	544.308
693.319	541.975
693.447	535.008
693.575	538.192
693.703	537.358
693.831	538.950
693.960	538.575
694.088	538.017
694.216	537.233
694.344	529.942
694.472	537.667
694.600	530.125
694.728	533.925
694.856	529.083
694.985	525.383
695.113	527.200
695.241	524.208
695.369	521.350
695.497	523.000
695.625	528.442
695.753	527.325
695.881	514.758
696.010	517.892
696.138	521.467
696.266	516.642
696.394	517.083
696.522	515.275
696.650	508.542
696.778	511.258
696.906	512.617
697.035	506.075
697.163	504.708
697.291	500.575
697.419	502.142
697.547	500.983
697.675	509.142
697.803	502.958
697.931	501.558
698.060	497.533
698.188	494.700
698.316	501.958
698.444	496.008
698.572	491.583
698.700	493.458
698.828	495.200
698.956	482.833
699.085	487.958
699.213	486.825
699.341	486.458
699.469	480.700
699.597	485.708
699.725	486.408
699.853	476.667
699.981	483.183
700.110	479.033
700.238	476.108
700.366	477.342
700.494	476.450
700.622	471.908
700.750	468.617
700.878	472.542
701.006	467.100
701.135	468.175
701.263	469.850
701.391	464.908
701.519	470.067
701.647	467.408
701.775	472.017
701.903	461.700
702.031	460.850
702.160	464.892
702.288	457.533
702.416	457.308
702.544	458.600
702.672	457.400
702.800	458.992
702.928	453.675
703.056	452.108
703.185	451.783
703.313	452.117
703.441	451.200
703.569	453.492
703.697	456.358
703.825	445.992
703.953	450.225
704.081	445.500
704.210	444.242
704.338	445.292
704.466	436.333
704.594	443.425
704.722	442.542
704.850	443.375
704.978	446.075
705.106	444.533
705.235	435.633
705.363	442.425
705.491	440.758
705.619	433.975
705.747	434.992
705.875	435.783
706.003	427.108
706.131	435.617
706.260	429.358
706.388	430.075
706.516	426.883
706.644	423.842
706.772	422.242
706.900	422.183
707.028	423.725
707.156	420.425
707.285	424.900
707.413	418.425
707.541	415.708
707.669	418.092
707.797	415.300
707.925	411.125
708.053	416.350
708.181	414.050
708.310	408.642
708.438	410.625
708.566	408.833
708.694	412.875
708.822	407.383
708.950	408.850
709.078	404.475
709.206	403.233
709.335	399.233
709.463	396.100
709.591	402.817
709.719	403.950
709.847	399.317
709.975	396.542
710.103	395.108
710.231	395.692
710.360	390.925
710.488	387.683
710.616	393.400
710.744	393.300
710.872	393.442
711.000	388.708
711.128	377.833
711.256	384.100
711.385	387.142
711.513	388.033
711.641	378.792
711.769	382.350
711.897	382.550
712.025	374.708
712.153	376.483
712.281	380.375
712.410	377.633
712.538	376.542
712.666	370.633
712.794	375.592
712.922	374.208
713.050	371.042
713.178	371.733
713.306	370.058
713.435	369.475
713.563	368.508
713.691	365.883
713.819	366.067
713.947	361.450
714.075	360.433
714.203	361.092
714.331	367.683
714.460	364.833
714.588	360.333
714.716	358.250
714.844	357.475
714.972	353.692
715.100	354.317
715.228	356.808
715.356	355.492
715.485	355.333
715.613	350.783
715.741	354.392
715.869	349.258
715.997	352.308
716.125	346.958
716.253	351.358
716.381	350.892
716.510	346.417
716.638	345.892
716.766	345.375
716.894	347.375
717.022	344.050
717.150	343.225
717.278	345.808
717.406	341.292
717.535	344.225
717.663	341.025
717.791	341.992
717.919	336.783
718.047	341.408
718.175	342.308
718.303	338.308
718.431	336.942
718.560	337.700
718.688	336.258
718.816	333.033
718.944	334.242
719.072	332.125
719.200	329.483
719.328	326.658
719.456	329.858
719.585	329.983
719.713	330.308
719.841	328.708
719.969	325.075
720.097	329.483
720.225	324.642
720.353	324.525
720.481	324.950
720.610	322.283
720.738	319.433
720.866	317.483
720.994	322.592
721.122	324.967
721.250	321.967
721.378	313.958
721.506	318.867
721.635	323.300
721.763	315.233
721.891	315.917
722.019	315.958
722.147	312.533
722.275	315.000
722.403	311.667
722.531	311.392
722.660	315.650
722.788	313.933
722.916	308.967
723.044	306.458
723.172	307.642
723.300	304.983
723.428	305.008
723.556	306.675
723.685	301.583
723.813	304.008
723.941	303.583
724.069	303.775
724.197	305.917
724.325	297.208
724.453	297.500
724.581	295.458
724.710	295.150
724.838	298.558
724.966	289.917
725.094	294.483
725.222	296.908
725.350	293.658
725.478	288.308
725.606	289.358
725.735	289.667
725.863	289.158
725.991	287.158
726.119	291.300
726.247	288.867
726.375	287.192
726.503	284.142
726.631	283.242
726.760	285.658
726.888	284.250
727.016	279.050
727.144	280.858
727.272	281.517
727.400	277.192
727.528	276.758
727.656	280.442
727.785	278.208
727.913	273.942
728.041	273.650
728.169	280.800
728.297	273.808
728.425	274.025
728.553	274.675
728.681	271.808
728.810	269.408
728.938	266.633
729.066	268.258
729.194	268.883
729.322	263.192
729.450	268.875
729.578	266.742
729.706	260.067
729.835	265.650
729.963	262.842
730.091	263.400
730.219	261.250
730.347	263.783
730.475	257.908
730.603	259.458
730.731	261.292
730.860	259.967
730.988	258.008
731.116	259.425
731.244	256.225
731.372	257.258
731.500	257.817
731.628	254.575
731.756	255.067
731.885	253.500
732.013	253.267
732.141	253.433
732.269	250.750
732.397	250.917
732.525	251.742
732.653	250.575
732.781	251.683
732.910	246.092
733.038	248.608
733.166	245.542
733.294	250.475
733.422	247.058
733.550	244.125
733.678	245.025
733.806	251.858
733.935	244.058
734.063	242.433
734.191	245.067
734.319	241.717
734.447	238.467
734.575	239.592
734.703	238.667
734.831	238.483
734.960	236.767
735.088	240.350
735.216	238.550
735.344	234.875
735.472	235.092
735.600	236.633
735.728	236.725
735.856	233.733
735.985	236.275
736.113	236.592
736.241	234.592
736.369	237.692
736.497	234.233
736.625	234.417
736.753	233.025
736.881	233.917
737.010	230.108
737.138	232.267
737.266	232.500
737.394	231.325
737.522	229.933
737.650	230.733
737.778	229.492
737.906	229.475
738.035	227.092
738.163	227.333
738.291	226.958
738.419	225.250
738.547	224.300
738.675	228.950
738.803	223.983
738.931	222.208
739.060	223.750
739.188	224.475
739.316	224.350
739.444	221.067
739.572	225.517
739.700	220.092
739.828	219.033
739.956	219.117
740.085	219.600
740.213	218.092
740.341	215.867
740.469	219.683
740.597	216.692
740.725	221.450
740.853	216.425
740.981	217.042
741.110	215.092
741.238	217.592
741.366	215.733
741.494	216.842
741.622	213.292
741.750	211.992
741.878	214.542
742.006	213.250
742.135	210.492
742.263	214.158
742.391	209.867
742.519	211.567
742.647	208.408
742.775	211.800
742.903	211.042
743.031	212.967
743.160	207.700
743.288	205.967
743.416	206.050
743.544	205.167
743.672	208.525
743.800	207.583
743.928	205.717
744.056	203.625
744.185	209.783
744.313	206.892
744.441	206.142
744.569	207.175
744.697	200.275
744.825	203.117
744.953	206.017
745.081	199.933
745.210	201.133
745.338	206.500
745.466	199.175
745.594	200.125
745.722	202.992
745.850	198.683
745.978	200.258
746.106	199.383
746.235	197.833
746.363	198.242
746.491	199.983
746.619	196.417
746.747	197.483
746.875	195.250
747.003	199.225
747.131	198.242
747.260	194.492
747.388	197.467
747.516	195.942
747.644	192.983
747.772	194.492
747.900	193.967
748.028	193.008
748.156	189.775
748.285	193.567
748.413	189.533
748.541	192.692
748.669	189.658
748.797	188.875
748.925	187.867
749.053	190.258
749.181	189.675
749.310	189.242
749.438	189.175
749.566	187.283
749.694	187.600
749.822	188.300
749.950	186.433
750.078	186.117
750.206	186.167
750.335	187.433
750.463	187.300
750.591	184.650
750.719	187.025
750.847	184.192
750.975	183.600
751.103	182.408
751.231	184.008
751.360	185.058
751.488	183.275
751.616	181.742
751.744	182.625
751.872	181.683
752.000	180.833
752.128	179.158
752.256	181.950
752.385	179.383
752.513	179.742
752.641	177.500
752.769	180.150
752.897	179.133
753.025	174.300
753.153	178.075
753.281	179.342
753.410	174.675
753.538	177.575
753.666	177.425
753.794	175.475
753.922	177.567
754.050	176.467
754.178	176.075
754.306	174.217
754.435	176.442
754.563	174.425
754.691	176.692
754.819	175.083
754.947	171.267
755.075	175.592
755.203	172.700
755.331	175.750
755.460	169.450
755.588	172.333
755.716	172.167
755.844	170.417
755.972	169.625
756.100	171.933
756.228	168.633
756.356	168.842
756.485	171.183
756.613	171.183
756.741	169.775
756.869	166.900
756.997	169.250
757.125	168.925
757.253	168.367
757.381	167.808
757.510	168.817
757.638	165.292
757.766	166.725
757.894	167.525
758.022	164.500
758.150	166.275
758.278	164.950
758.406	162.617
758.535	167.442
758.663	166.733
758.791	163.217
758.919	165.533
759.047	163.208
759.175	163.308
759.303	162.725
759.431	160.692
759.560	161.525
759.688	164.125
759.816	166.050
759.944	162.392
760.072	162.458
760.200	158.808
760.328	161.458
760.456	161.433
760.585	159.792
760.713	160.675
760.841	159.183
760.969	159.308
761.097	160.592
761.225	159.283
761.353	159.250
761.481	159.025
761.610	156.525
761.738	158.883
761.866	158.467
761.994	155.792
762.122	158.367
762.250	157.800
762.378	154.317
762.506	156.200
762.635	155.733
762.763	157.175
762.891	153.925
763.019	156.150
763.147	156.858
763.275	155.833
763.403	154.975
763.531	155.258
763.660	155.242
763.788	151.867
763.916	151.733
764.044	152.883
764.172	153.292
764.300	149.808
764.428	151.642
764.556	151.583
764.685	149.708
764.813	149.492
764.941	153.433
765.069	152.967
765.197	152.042
765.325	148.258
765.453	151.908
765.581	150.775
765.710	149.225
765.838	150.100
765.966	150.358
766.094	147.825
766.222	148.208
766.350	148.267
766.478	148.442
766.606	145.300
766.735	146.167
766.863	146.208
766.991	146.500
767.119	146.217
767.247	146.467
767.375	147.458
767.503	145.917
767.631	146.067
767.760	143.850
767.888	144.492
768.016	146.542
768.144	144.992
768.272	145.133
768.400	144.725
768.528	144.467
768.656	144.658
768.785	144.917
768.913	143.458
769.041	143.625
769.169	142.700
769.297	142.842
769.425	143.175
769.553	143.542
769.681	143.417
769.810	145.458
769.938	143.717
770.066	141.650
770.194	141.267
770.322	143.292
770.450	140.592
770.578	140.233
770.706	141.833
770.835	141.933
770.963	140.150
771.091	140.083
771.219	139.417
771.347	140.542
771.475	140.825
771.603	140.242
771.731	138.475
771.860	139.592
771.988	136.917
772.116	138.883
772.244	138.050
772.372	140.050
772.500	138.842
772.628	140.100
772.756	136.508
772.885	139.292
773.013	138.433
773.141	136.942
773.269	137.300
773.397	136.275
773.525	136.458
773.653	137.925
773.781	135.508
773.910	136.283
774.038	135.292
774.166	136.683
774.294	137.258
774.422	132.283
774.550	134.058
774.678	136.217
774.806	132.592
774.935	134.967
775.063	134.975
775.191	136.808
775.319	136.308
775.447	135.483
775.575	133.050
775.703	134.675
775.831	132.992
775.960	132.883
776.088	134.042
776.216	133.675
776.344	133.617
776.472	132.558
776.600	134.700
776.728	131.808
776.856	133.067
776.985	132.633
777.113	133.775
777.241	132.408
777.369	132.375
777.497	129.583
777.625	131.625
777.753	131.367
777.881	132.067
778.010	130.200
778.138	129.067
778.266	128.725
778.394	129.867
778.522	130.067
778.650	130.975
778.778	129.325
778.906	129.600
779.035	129.367
779.163	129.700
779.291	128.858
779.419	128.717
779.547	130.867
779.675	127.350
779.803	128.708
779.931	128.675
780.060	129.217
780.188	127.633
780.316	129.558
780.444	128.717
780.572	128.200
780.700	129.733
780.828	128.783
780.956	127.633
781.085	128.525
781.213	127.000
781.341	127.817
781.469	128.633
781.597	128.525
781.725	126.858
781.853	125.767
781.981	125.733
782.110	127.817
782.238	125.967
782.366	125.242
782.494	125.500
782.622	125.708
782.750	127.492
782.878	128.283
783.006	128.183
783.135	125.275
783.263	124.683
783.391	125.042
783.519	125.275
783.647	124.783
783.775	124.900
783.903	126.617
784.031	121.983
784.160	124.808
784.288	124.142
784.416	123.192
784.544	123.108
784.672	123.675
784.800	123.692
784.928	124.300
785.056	123.892
785.185	122.967
785.313	122.008
785.441	122.150
785.569	122.808
785.697	123.317
785.825	123.692
785.953	121.967
786.081	122.300
786.210	122.067
786.338	121.992
786.466	121.900
786.594	121.917
786.722	121.533
786.850	121.833
786.978	120.317
787.106	121.117
787.235	119.750
787.363	121.392
787.491	121.283
787.619	122.308
787.747	120.683
787.875	120.350
788.003	120.033
788.131	119.892
788.260	121.433
788.388	120.808
788.516	121.133
788.644	120.458
788.772	119.233
788.900	120.583
789.028	118.925
789.156	120.325
789.285	120.142
789.413	119.642
789.541	121.017
789.669	118.475
789.797	118.150
789.925	118.000
790.053	119.850
790.181	119.417
790.310	118.158
790.438	118.308
790.566	116.925
790.694	118.625
790.822	118.625
790.950	118.492
791.078	117.633
791.206	117.575
791.335	117.567
791.463	118.342
791.591	118.492
791.719	118.000
791.847	116.292
791.975	116.700
792.103	116.650
792.231	117.308
792.360	116.767
792.488	117.042
792.616	117.392
792.744	117.008
792.872	116.875
793.000	115.625
793.128	115.342
793.256	117.600
793.385	116.433
793.513	117.408
793.641	116.633
793.769	116.233
793.897	116.317
794.025	118.092
794.153	116.733
794.281	116.208
794.410	115.400
794.538	115.942
794.666	114.900
794.794	114.950
794.922	114.675
795.050	115.708
795.178	115.458
795.306	113.158
795.435	114.417
795.563	114.217
795.691	113.275
795.819	114.550
795.947	115.025
796.075	116.050
796.203	115.458
796.331	114.308
796.460	113.775
796.588	114.375
796.716	114.417
796.844	114.683
796.972	114.808
797.100	113.633
797.228	114.800
797.356	115.667
797.485	113.808
797.613	114.717
797.741	114.650
797.869	114.767
797.997	113.600
798.125	112.792
798.253	113.000
798.381	113.500
798.510	114.083
798.638	113.617
798.766	112.250
798.894	113.250
799.022	112.817
799.150	112.817
799.278	112.367
799.406	113.700
799.535	113.350
799.663	113.467
799.791	112.000
799.919	112.050
800.047	113.333
800.175	112.550
800.303	113.042
800.431	112.942
800.560	110.608
800.688	112.800
800.816	111.917
800.944	111.500
801.072	112.833
801.200	112.683
801.328	111.600
801.456	112.892
801.585	113.042
801.713	111.675
801.841	111.342
801.969	112.792
802.097	112.308
802.225	111.542
802.353	112.175
802.481	112.433
802.610	111.500
802.738	110.775
802.866	111.550
802.994	110.717
803.122	111.467
803.250	111.475
803.378	111.900
803.506	111.725
803.635	111.908
803.763	111.308
803.891	110.742
804.019	110.467
804.147	110.583
804.275	109.275
804.403	110.483
804.531	110.350
804.660	110.417
804.788	109.975
804.916	110.000
805.044	111.000
805.172	111.275
805.300	109.908
805.428	110.567
805.556	109.275
805.685	111.067
805.813	111.758
805.941	109.975
806.069	111.675
806.197	111.708
806.325	110.517
806.453	110.758
806.581	110.183
806.710	109.433
806.838	108.825
806.966	110.292
807.094	110.283
807.222	110.625
807.350	110.558
807.478	110.167
807.606	108.775
807.735	109.917
807.863	110.225
807.991	109.408
808.119	110.342
808.247	109.933
808.375	109.008
808.503	109.042
808.631	109.542
808.760	109.108
808.888	108.850
809.016	109.967
809.144	110.800
809.272	110.475
809.400	110.333
809.528	109.200
809.656	108.808
809.785	109.208
809.913	109.483
810.041	108.358
810.169	108.975
810.297	109.583
810.425	108.183
810.553	108.267
810.681	110.258
810.810	108.650
810.938	109.758
811.066	108.100
811.194	108.283
811.322	108.658
811.450	109.692
811.578	109.408
811.706	110.083
811.835	108.833
811.963	108.783
812.091	108.792
812.219	108.942
812.347	107.817
812.475	108.783
812.603	109.417
812.731	108.292
812.860	108.750
812.988	108.983
813.116	108.500
813.244	108.650
813.372	108.725
813.500	108.142
813.628	109.233
813.756	107.367
813.885	109.250
814.013	108.267
814.141	108.758
814.269	107.725
814.397	108.833
814.525	107.975
814.653	108.333
814.781	107.433
814.910	107.617
815.038	108.192
815.166	107.983
815.294	107.175
815.422	107.583
815.550	106.958
815.678	107.633
815.806	106.917
815.935	106.708
816.063	106.825
816.191	107.550
816.319	108.000
816.447	107.742
816.575	107.783
816.703	107.725
816.831	106.900
816.960	109.250
817.088	108.283
817.216	107.842
817.344	107.533
817.472	107.758
817.600	106.775
817.728	106.092
817.856	108.033
817.985	106.533
818.113	107.617
818.241	108.017
818.369	107.075
818.497	109.008
818.625	106.892
818.753	106.733
818.881	107.575
819.010	106.733
819.138	106.933
819.266	106.558
819.394	106.183
819.522	105.542
819.650	107.833
819.778	107.117
819.906	107.275
820.035	106.858
820.163	106.842
820.291	106.058
820.419	106.358
820.547	107.383
820.675	105.875
820.803	106.975
820.931	107.217
821.060	104.467
821.188	106.133
821.316	106.225
821.444	107.858
821.572	106.808
821.700	106.517
821.828	106.683
821.956	106.317
822.085	106.292
822.213	107.225
822.341	107.250
822.469	106.167
822.597	105.667
822.725	105.933
822.853	106.025
822.981	106.250
823.110	107.050
823.238	105.058
823.366	107.092
823.494	104.967
823.622	106.275
823.750	106.050
823.878	105.117
824.006	107.592
824.135	106.492
824.263	107.125
824.391	106.183
824.519	107.342
824.647	106.142
824.775	106.450
824.903	106.775
825.031	108.017
825.160	107.550
825.288	106.592
825.416	106.875
825.544	106.908
825.672	107.400
825.800	106.275
825.928	106.850
826.056	106.117
826.185	105.858
826.313	106.108
826.441	106.133
826.569	105.550
826.697	106.725
826.825	105.908
826.953	106.100
827.081	105.558
827.210	105.742
827.338	105.100
827.466	105.225
827.594	106.383
827.722	105.975
827.850	105.983
827.978	105.075
828.106	105.083
828.235	105.983
828.363	105.983
828.491	106.475
828.619	105.983
828.747	106.467
828.875	105.700
829.003	105.667
829.131	106.458
829.260	106.875
829.388	105.825
829.516	106.475
829.644	105.567
829.772	106.017
829.900	105.333
830.028	105.967
830.156	105.675
830.285	105.683
830.413	106.200
830.541	106.158
830.669	105.858
830.797	105.275
830.925	105.825
831.053	105.025
831.181	105.642
831.310	106.075
831.438	105.833
831.566	105.775
831.694	105.067
831.822	104.792
831.950	105.608
832.078	105.692
832.206	105.358
832.335	104.475
832.463	105.633
832.591	105.308
832.719	104.283
832.847	105.350
832.975	104.967
833.103	105.858
833.231	105.408
833.360	105.658
833.488	105.392
833.616	104.483
833.744	104.167
833.872	105.808
834.000	106.700
834.128	105.600
834.256	105.492
834.385	105.100
834.513	106.292
834.641	104.233
834.769	104.383
834.897	105.825
835.025	104.792
835.153	103.933
835.281	105.225
835.410	105.158
835.538	105.292
835.666	105.575
835.794	105.358
835.922	106.133
836.050	105.158
836.178	104.717
836.306	105.083
836.435	105.342
836.563	104.742
836.691	105.350
836.819	106.100
836.947	104.433
837.075	105.742
837.203	104.267
837.331	104.983
837.460	104.992
837.588	104.383
837.716	105.242
837.844	105.217
837.972	104.825
838.100	105.450
838.228	104.417
838.356	104.017
838.485	103.117
838.613	104.508
838.741	105.158
838.869	104.567
838.997	105.142
839.125	103.183
839.253	104.067
839.381	105.708
839.510	104.675
839.638	104.508
839.766	104.175
839.894	104.183
840.022	104.933
840.150	105.183
840.278	104.292
840.406	105.067
840.535	105.442
840.663	103.450
840.791	104.008
840.919	104.225
841.047	103.608
841.175	104.642
841.303	104.792
841.431	104.708
841.560	104.575
841.688	104.217
841.816	104.575
841.944	104.925
842.072	105.500
842.200	104.458
842.328	105.075
842.456	103.800
842.585	104.975
842.713	104.167
842.841	104.742
842.969	104.908
843.097	104.817
843.225	104.750
843.353	105.367
843.481	103.900
843.610	104.383
843.738	103.217
843.866	104.117
