90-80-unpol_at_679.99nm_cut_at_1253.00Y_01.dat
24.01.2024
13:26:10
cut middle at Y: 1253.00
top cursor: 1313 down cursor: 1193 mean of: 120 lines , 2560 datapoints
wavelength(nm)	intensity[arb. units]
515.994	2600.300
516.122	2445.617
516.250	2423.025
516.378	2393.067
516.506	2395.267
516.635	2397.183
516.763	2410.383
516.891	2425.900
517.019	2419.192
517.147	2413.275
517.275	2420.850
517.403	2421.250
517.531	2416.433
517.660	2411.633
517.788	2414.242
517.916	2436.475
518.044	2426.517
518.172	2432.150
518.300	2443.933
518.428	2431.550
518.556	2429.233
518.685	2434.808
518.813	2433.500
518.941	2449.925
519.069	2451.325
519.197	2451.708
519.325	2455.450
519.453	2461.008
519.581	2459.950
519.710	2461.267
519.838	2466.608
519.966	2471.900
520.094	2473.858
520.222	2469.775
520.350	2480.975
520.478	2497.050
520.606	2498.983
520.735	2498.142
520.863	2508.250
520.991	2520.225
521.119	2511.583
521.247	2525.483
521.375	2532.058
521.503	2547.175
521.631	2559.650
521.760	2550.608
521.888	2559.192
522.016	2559.233
522.144	2559.142
522.272	2565.267
522.400	2575.067
522.528	2596.842
522.656	2587.725
522.785	2595.175
522.913	2600.125
523.041	2606.108
523.169	2590.850
523.297	2607.567
523.425	2607.108
523.553	2605.217
523.681	2592.683
523.810	2614.350
523.938	2619.467
524.066	2611.442
524.194	2607.267
524.322	2610.233
524.450	2623.417
524.578	2606.642
524.706	2610.242
524.835	2605.208
524.963	2622.158
525.091	2614.267
525.219	2629.075
525.347	2622.125
525.475	2613.567
525.603	2626.733
525.731	2625.775
525.860	2621.967
525.988	2608.908
526.116	2618.358
526.244	2630.317
526.372	2595.200
526.500	2625.150
526.628	2627.275
526.756	2626.733
526.885	2633.525
527.013	2624.025
527.141	2634.700
527.269	2622.717
527.397	2632.175
527.525	2633.867
527.653	2620.067
527.781	2641.575
527.910	2638.925
528.038	2636.258
528.166	2668.208
528.294	2643.242
528.422	2665.067
528.550	2645.600
528.678	2657.633
528.806	2667.125
528.935	2673.483
529.063	2663.200
529.191	2655.442
529.319	2683.233
529.447	2674.942
529.575	2674.725
529.703	2670.408
529.831	2681.550
529.960	2683.350
530.088	2678.183
530.216	2674.458
530.344	2683.000
530.472	2690.800
530.600	2681.883
530.728	2695.917
530.856	2691.225
530.985	2695.075
531.113	2674.083
531.241	2673.858
531.369	2687.467
531.497	2679.342
531.625	2689.458
531.753	2679.483
531.881	2690.600
532.010	2689.525
532.138	2682.017
532.266	2673.025
532.394	2676.192
532.522	2666.333
532.650	2674.567
532.778	2673.750
532.906	2668.717
533.035	2661.750
533.163	2661.233
533.291	2660.767
533.419	2653.750
533.547	2648.100
533.675	2648.175
533.803	2659.375
533.931	2635.350
534.060	2658.808
534.188	2638.533
534.316	2640.300
534.444	2638.975
534.572	2632.875
534.700	2639.392
534.828	2653.900
534.956	2647.217
535.085	2654.900
535.213	2680.792
535.341	2669.417
535.469	2664.217
535.597	2677.350
535.725	2679.250
535.853	2686.142
535.981	2678.742
536.110	2689.150
536.238	2703.692
536.366	2706.575
536.494	2704.642
536.622	2718.042
536.750	2719.933
536.878	2721.733
537.006	2732.000
537.135	2742.642
537.263	2739.750
537.391	2758.950
537.519	2743.208
537.647	2751.075
537.775	2756.592
537.903	2768.725
538.031	2771.558
538.160	2788.133
538.288	2786.158
538.416	2785.708
538.544	2774.875
538.672	2794.192
538.800	2781.808
538.928	2802.225
539.056	2807.475
539.185	2804.158
539.313	2789.158
539.441	2792.142
539.569	2820.092
539.697	2810.167
539.825	2821.483
539.953	2814.650
540.081	2797.625
540.210	2798.442
540.338	2811.367
540.466	2799.825
540.594	2814.217
540.722	2809.125
540.850	2829.150
540.978	2809.075
541.106	2811.592
541.235	2815.392
541.363	2793.908
541.491	2807.692
541.619	2792.117
541.747	2780.692
541.875	2796.867
542.003	2791.483
542.131	2803.875
542.260	2798.433
542.388	2806.125
542.516	2792.467
542.644	2777.075
542.772	2801.092
542.900	2777.033
543.028	2793.533
543.156	2791.683
543.285	2792.217
543.413	2772.675
543.541	2788.483
543.669	2789.275
543.797	2791.175
543.925	2774.408
544.053	2782.242
544.181	2781.933
544.310	2786.708
544.438	2777.533
544.566	2790.642
544.694	2773.175
544.822	2786.950
544.950	2798.558
545.078	2790.058
545.206	2776.375
545.335	2791.675
545.463	2788.833
545.591	2789.383
545.719	2773.375
545.847	2772.900
545.975	2799.442
546.103	2795.208
546.231	2778.508
546.360	2772.242
546.488	2792.450
546.616	2785.350
546.744	2802.308
546.872	2786.267
547.000	2791.117
547.128	2791.475
547.256	2776.558
547.385	2782.417
547.513	2794.175
547.641	2786.975
547.769	2799.400
547.897	2793.683
548.025	2783.733
548.153	2790.883
548.281	2766.592
548.410	2777.308
548.538	2779.425
548.666	2772.367
548.794	2776.242
548.922	2770.642
549.050	2783.067
549.178	2772.658
549.306	2770.275
549.435	2768.400
549.563	2764.292
549.691	2774.775
549.819	2781.592
549.947	2779.308
550.075	2763.717
550.203	2753.683
550.331	2762.283
550.460	2751.750
550.588	2735.825
550.716	2762.867
550.844	2741.725
550.972	2732.450
551.100	2745.508
551.228	2737.733
551.356	2732.450
551.485	2737.817
551.613	2719.058
551.741	2722.942
551.869	2710.608
551.997	2712.442
552.125	2697.642
552.253	2691.800
552.381	2693.625
552.510	2688.333
552.638	2679.117
552.766	2678.883
552.894	2661.267
553.022	2677.725
553.150	2652.017
553.278	2669.967
553.406	2670.125
553.535	2648.783
553.663	2649.775
553.791	2643.100
553.919	2642.183
554.047	2637.175
554.175	2639.200
554.303	2629.667
554.431	2631.267
554.560	2629.850
554.688	2638.850
554.816	2617.192
554.944	2624.625
555.072	2601.600
555.200	2621.958
555.328	2617.225
555.456	2621.350
555.585	2600.608
555.713	2591.583
555.841	2608.833
555.969	2609.358
556.097	2598.258
556.225	2601.617
556.353	2595.617
556.481	2596.992
556.610	2603.975
556.738	2615.167
556.866	2608.242
556.994	2602.358
557.122	2589.658
557.250	2602.158
557.378	2609.325
557.506	2596.858
557.635	2605.575
557.763	2593.592
557.891	2614.458
558.019	2585.425
558.147	2597.567
558.275	2600.892
558.403	2615.117
558.531	2592.383
558.660	2607.850
558.788	2608.133
558.916	2595.183
559.044	2586.483
559.172	2603.933
559.300	2609.800
559.428	2602.342
559.556	2594.483
559.685	2594.067
559.813	2589.183
559.941	2613.833
560.069	2598.233
560.197	2596.542
560.325	2598.033
560.453	2570.225
560.581	2580.317
560.710	2569.442
560.838	2578.833
560.966	2589.250
561.094	2593.567
561.222	2590.758
561.350	2570.300
561.478	2564.400
561.606	2568.517
561.735	2574.308
561.863	2551.533
561.991	2561.008
562.119	2548.483
562.247	2552.083
562.375	2549.558
562.503	2557.142
562.631	2531.983
562.760	2533.400
562.888	2552.675
563.016	2535.850
563.144	2538.692
563.272	2514.358
563.400	2527.700
563.528	2507.475
563.656	2532.817
563.785	2524.350
563.913	2499.725
564.041	2507.958
564.169	2495.892
564.297	2502.417
564.425	2505.617
564.553	2520.208
564.681	2500.350
564.810	2500.233
564.938	2508.133
565.066	2484.850
565.194	2502.575
565.322	2491.183
565.450	2493.992
565.578	2505.800
565.706	2492.092
565.835	2496.733
565.963	2485.867
566.091	2478.042
566.219	2502.167
566.347	2493.275
566.475	2488.350
566.603	2485.417
566.731	2487.383
566.860	2484.792
566.988	2480.650
567.116	2501.408
567.244	2493.433
567.372	2498.642
567.500	2505.892
567.628	2494.558
567.756	2496.450
567.885	2503.517
568.013	2499.075
568.141	2500.750
568.269	2484.942
568.397	2492.517
568.525	2486.933
568.653	2510.583
568.781	2504.258
568.910	2516.892
569.038	2509.208
569.166	2504.383
569.294	2486.608
569.422	2513.517
569.550	2506.408
569.678	2503.433
569.806	2508.675
569.935	2520.983
570.063	2517.600
570.191	2519.883
570.319	2530.742
570.447	2510.775
570.575	2510.358
570.703	2524.600
570.831	2530.583
570.960	2522.733
571.088	2518.475
571.216	2509.267
571.344	2518.792
571.472	2503.050
571.600	2539.692
571.728	2511.683
571.856	2520.958
571.985	2518.708
572.113	2524.867
572.241	2530.833
572.369	2518.417
572.497	2516.908
572.625	2510.400
572.753	2506.133
572.881	2520.867
573.010	2513.550
573.138	2543.167
573.266	2532.792
573.394	2522.217
573.522	2519.942
573.650	2528.058
573.778	2526.083
573.906	2511.808
574.035	2524.292
574.163	2520.242
574.291	2516.442
574.419	2518.958
574.547	2510.458
574.675	2518.850
574.803	2507.833
574.931	2501.375
575.060	2523.258
575.188	2501.925
575.316	2498.708
575.444	2495.850
575.572	2500.958
575.700	2490.600
575.828	2500.200
575.956	2498.967
576.085	2479.325
576.213	2487.917
576.341	2482.267
576.469	2478.717
576.597	2474.442
576.725	2476.275
576.853	2468.383
576.981	2464.825
577.110	2470.833
577.238	2477.883
577.366	2472.342
577.494	2453.967
577.622	2443.083
577.750	2455.892
577.878	2457.300
578.006	2463.000
578.135	2457.500
578.263	2464.817
578.391	2459.267
578.519	2434.642
578.647	2462.425
578.775	2442.167
578.903	2436.158
579.031	2446.708
579.160	2433.700
579.288	2433.067
579.416	2428.092
579.544	2435.400
579.672	2430.900
579.800	2422.317
579.928	2419.233
580.056	2428.592
580.185	2424.958
580.313	2428.858
580.441	2428.808
580.569	2426.183
580.697	2418.525
580.825	2436.108
580.953	2438.242
581.081	2422.942
581.210	2445.067
581.338	2426.508
581.466	2429.233
581.594	2435.942
581.722	2439.533
581.850	2429.692
581.978	2437.158
582.106	2429.950
582.235	2439.342
582.363	2432.008
582.491	2435.550
582.619	2460.667
582.747	2449.992
582.875	2442.417
583.003	2451.942
583.131	2450.292
583.260	2464.592
583.388	2472.017
583.516	2455.758
583.644	2476.292
583.772	2475.967
583.900	2486.375
584.028	2492.467
584.156	2475.850
584.285	2499.500
584.413	2487.208
584.541	2487.458
584.669	2500.133
584.797	2501.975
584.925	2514.700
585.053	2501.725
585.181	2509.767
585.310	2514.833
585.438	2522.017
585.566	2525.817
585.694	2532.242
585.822	2542.067
585.950	2525.417
586.078	2535.850
586.206	2542.342
586.335	2550.733
586.463	2554.750
586.591	2552.325
586.719	2544.125
586.847	2556.842
586.975	2555.425
587.103	2563.708
587.231	2543.033
587.360	2567.883
587.488	2555.200
587.616	2550.200
587.744	2576.033
587.872	2565.917
588.000	2570.667
588.128	2561.117
588.256	2571.175
588.385	2571.800
588.513	2573.058
588.641	2566.100
588.769	2586.650
588.897	2566.633
589.025	2577.600
589.153	2565.533
589.281	2560.067
589.410	2570.342
589.538	2554.008
589.666	2569.917
589.794	2579.567
589.922	2585.725
590.050	2580.292
590.178	2561.192
590.306	2564.050
590.435	2570.550
590.563	2565.300
590.691	2566.042
590.819	2567.875
590.947	2592.092
591.075	2576.450
591.203	2569.683
591.331	2574.433
591.460	2582.158
591.588	2579.467
591.716	2591.008
591.844	2570.042
591.972	2590.992
592.100	2583.050
592.228	2581.025
592.356	2576.233
592.485	2577.842
592.613	2580.333
592.741	2592.525
592.869	2584.150
592.997	2584.483
593.125	2599.775
593.253	2608.050
593.381	2590.267
593.510	2601.067
593.638	2595.258
593.766	2601.900
593.894	2600.775
594.022	2602.692
594.150	2601.400
594.278	2624.025
594.406	2599.167
594.535	2603.650
594.663	2622.500
594.791	2635.133
594.919	2615.383
595.047	2642.292
595.175	2637.742
595.303	2633.425
595.431	2634.192
595.560	2664.700
595.688	2652.750
595.816	2648.275
595.944	2656.942
596.072	2661.650
596.200	2655.550
596.328	2671.342
596.456	2663.667
596.585	2665.300
596.713	2681.883
596.841	2677.858
596.969	2675.558
597.097	2695.558
597.225	2705.775
597.353	2701.875
597.481	2692.333
597.610	2697.792
597.738	2713.025
597.866	2703.317
597.994	2714.600
598.122	2740.250
598.250	2730.600
598.378	2707.967
598.506	2732.800
598.635	2727.833
598.763	2743.192
598.891	2737.350
599.019	2739.708
599.147	2733.683
599.275	2746.492
599.403	2747.808
599.531	2773.550
599.660	2765.883
599.788	2765.133
599.916	2767.992
600.044	2779.575
600.172	2772.817
600.300	2781.708
600.428	2766.875
600.556	2789.800
600.685	2804.792
600.813	2784.483
600.941	2830.017
601.069	2799.808
601.197	2816.267
601.325	2817.725
601.453	2811.867
601.581	2830.083
601.710	2833.850
601.838	2838.325
601.966	2862.308
602.094	2853.117
602.222	2860.633
602.350	2836.325
602.478	2865.192
602.606	2883.483
602.735	2866.325
602.863	2895.208
602.991	2899.900
603.119	2885.800
603.247	2886.017
603.375	2898.708
603.503	2903.050
603.631	2930.100
603.760	2924.525
603.888	2934.033
604.016	2934.767
604.144	2936.833
604.272	2956.625
604.400	2935.142
604.528	2949.433
604.656	2975.717
604.785	2971.383
604.913	2987.783
605.041	2971.883
605.169	2994.658
605.297	3006.883
605.425	2991.617
605.553	3022.292
605.681	3005.367
605.810	3024.317
605.938	3031.733
606.066	3014.458
606.194	3031.892
606.322	3019.375
606.450	3039.525
606.578	3034.500
606.706	3046.217
606.835	3063.633
606.963	3080.867
607.091	3071.617
607.219	3060.392
607.347	3044.150
607.475	3089.642
607.603	3068.525
607.731	3051.000
607.860	3088.717
607.988	3055.017
608.116	3096.150
608.244	3079.142
608.372	3099.525
608.500	3087.717
608.628	3084.817
608.756	3091.425
608.885	3136.733
609.013	3087.425
609.141	3070.508
609.269	3068.583
609.397	3097.900
609.525	3093.117
609.653	3116.817
609.781	3102.842
609.910	3101.367
610.038	3189.508
610.166	3121.300
610.294	3100.042
610.422	3107.758
610.550	3094.258
610.678	3098.633
610.806	3130.400
610.935	3099.200
611.063	3106.967
611.191	3134.175
611.319	3146.042
611.447	3123.325
611.575	3115.950
611.703	3114.308
611.831	3131.925
611.960	3127.858
612.088	3134.033
612.216	3126.925
612.344	3133.525
612.472	3147.542
612.600	3152.142
612.728	3153.383
612.856	3108.092
612.985	3125.750
613.113	3168.350
613.241	3175.408
613.369	3145.167
613.497	3168.692
613.625	3189.575
613.753	3145.450
613.881	3179.133
614.010	3149.750
614.138	3209.625
614.266	3175.092
614.394	3204.075
614.522	3204.167
614.650	3195.642
614.778	3195.600
614.906	3195.075
615.035	3223.392
615.163	3186.550
615.291	3235.658
615.419	3202.475
615.547	3195.017
615.675	3230.375
615.803	3264.592
615.931	3240.975
616.060	3226.008
616.188	3254.025
616.316	3246.600
616.444	3231.475
616.572	3287.483
616.700	3292.417
616.828	3286.500
616.956	3292.358
617.085	3300.833
617.213	3279.308
617.341	3302.008
617.469	3383.208
617.597	3296.358
617.725	3290.150
617.853	3319.442
617.981	3320.325
618.110	3375.742
618.238	3354.167
618.366	3328.017
618.494	3339.875
618.622	3347.783
618.750	3411.133
618.878	3404.850
619.006	3377.742
619.135	3434.742
619.263	3410.925
619.391	3405.958
619.519	3419.092
619.647	3461.633
619.775	3451.250
619.903	3462.467
620.031	3445.983
620.160	3440.392
620.288	3462.758
620.416	3470.725
620.544	3489.442
620.672	3479.167
620.800	3499.108
620.928	3502.467
621.056	3539.067
621.185	3529.217
621.313	3509.625
621.441	3535.017
621.569	3532.458
621.697	3548.975
621.825	3557.475
621.953	3548.208
622.081	3571.450
622.210	3538.717
622.338	3585.833
622.466	3594.608
622.594	3621.175
622.722	3593.583
622.850	3629.575
622.978	3653.267
623.106	3641.917
623.235	3632.517
623.363	3650.358
623.491	3628.425
623.619	3669.867
623.747	3642.125
623.875	3700.100
624.003	3647.817
624.131	3679.483
624.260	3702.467
624.388	3681.417
624.516	3691.975
624.644	3672.475
624.772	3676.442
624.900	3663.842
625.028	3688.642
625.156	3677.775
625.285	3722.367
625.413	3719.500
625.541	3730.292
625.669	3707.417
625.797	3727.642
625.925	3730.567
626.053	3716.275
626.181	3685.867
626.310	3809.417
626.438	3693.192
626.566	3717.708
626.694	3709.308
626.822	3717.683
626.950	3758.642
627.078	3703.600
627.206	3739.975
627.335	3737.458
627.463	3730.500
627.591	3758.642
627.719	3780.967
627.847	3746.583
627.975	3757.900
628.103	3770.117
628.231	3769.150
628.360	3752.683
628.488	3751.367
628.616	3764.392
628.744	3776.008
628.872	3780.342
629.000	3768.400
629.128	3785.692
629.256	3761.867
629.385	3774.275
629.513	3774.792
629.641	3789.125
629.769	3831.625
629.897	3802.883
630.025	3770.975
630.153	3827.775
630.281	3786.033
630.410	3784.050
630.538	3797.175
630.666	3810.975
630.794	3795.433
630.922	3839.858
631.050	3804.575
631.178	3818.067
631.306	3818.350
631.435	3791.767
631.563	3824.750
631.691	3856.500
631.819	3918.767
631.947	3818.958
632.075	3790.817
632.203	3858.183
632.331	3801.792
632.460	3824.558
632.588	3818.700
632.716	3821.625
632.844	3866.375
632.972	3801.533
633.100	3800.158
633.228	3844.942
633.356	3824.950
633.485	3839.100
633.613	3836.983
633.741	3847.617
633.869	3818.542
633.997	3822.442
634.125	3866.292
634.253	3813.908
634.381	3837.767
634.510	3855.675
634.638	3830.475
634.766	3889.583
634.894	3829.050
635.022	3831.167
635.150	3820.975
635.278	3842.358
635.406	3829.067
635.535	3839.633
635.663	3837.792
635.791	3784.475
635.919	3814.458
636.047	3816.417
636.175	3797.900
636.303	3820.733
636.431	3833.883
636.560	3814.842
636.688	3802.817
636.816	3822.533
636.944	3814.767
637.072	3818.450
637.200	3820.092
637.328	3829.758
637.456	3819.700
637.585	3803.100
637.713	3837.375
637.841	3803.025
637.969	3811.608
638.097	3824.742
638.225	3819.383
638.353	3791.533
638.481	3808.250
638.610	3821.117
638.738	3813.133
638.866	3815.200
638.994	3820.650
639.122	3814.650
639.250	3791.975
639.378	3836.342
639.506	3817.850
639.635	3834.192
639.763	3782.183
639.891	3832.533
640.019	3833.908
640.147	3859.050
640.275	3816.683
640.403	3790.842
640.531	3864.433
640.660	3821.483
640.788	3900.467
640.916	3819.717
641.044	3846.167
641.172	3804.633
641.300	3823.083
641.428	3810.167
641.556	3829.608
641.685	3829.583
641.813	3812.908
641.941	3819.000
642.069	3842.783
642.197	3853.442
642.325	3860.183
642.453	3830.258
642.581	3934.583
642.710	3783.192
642.838	3849.875
642.966	3831.400
643.094	3826.617
643.222	3813.858
643.350	3854.383
643.478	3863.725
643.606	3841.775
643.735	3793.017
643.863	3850.050
643.991	3831.067
644.119	3832.258
644.247	3830.600
644.375	3810.308
644.503	3838.500
644.631	3860.492
644.760	3856.442
644.888	3850.308
645.016	3847.350
645.144	3853.975
645.272	3799.133
645.400	3866.267
645.528	3849.542
645.656	3814.517
645.785	3822.892
645.913	3880.950
646.041	3842.350
646.169	3870.292
646.297	3808.125
646.425	3839.367
646.553	3804.983
646.681	3782.442
646.810	3819.075
646.938	3792.817
647.066	3749.092
647.194	3858.300
647.322	3774.033
647.450	3760.783
647.578	3783.558
647.706	3769.492
647.835	3735.267
647.963	3800.817
648.091	3743.050
648.219	3794.092
648.347	3763.383
648.475	3732.717
648.603	3752.750
648.731	3728.892
648.860	3714.667
648.988	3698.933
649.116	3695.067
649.244	3678.250
649.372	3681.717
649.500	3678.100
649.628	3707.400
649.756	3681.308
649.885	3645.775
650.013	3620.700
650.141	3638.958
650.269	3576.608
650.397	3590.050
650.525	3557.892
650.653	3618.783
650.781	3605.892
650.910	3552.633
651.038	3519.383
651.166	3533.083
651.294	3531.117
651.422	3516.617
651.550	3476.558
651.678	3500.425
651.806	3468.533
651.935	3493.792
652.063	3496.867
652.191	3462.100
652.319	3438.925
652.447	3437.517
652.575	3435.250
652.703	3459.008
652.831	3434.442
652.960	3397.183
653.088	3407.775
653.216	3393.867
653.344	3414.025
653.472	3368.750
653.600	3352.833
653.728	3340.100
653.856	3361.042
653.985	3328.233
654.113	3315.533
654.241	3335.067
654.369	3319.908
654.497	3334.417
654.625	3333.075
654.753	3286.633
654.881	3341.000
655.010	3358.100
655.138	3277.525
655.266	3279.425
655.394	3273.525
655.522	3308.892
655.650	3226.358
655.778	3322.275
655.906	3250.142
656.035	3227.133
656.163	3213.750
656.291	3206.500
656.419	3222.050
656.547	3208.042
656.675	3201.800
656.803	3207.408
656.931	3165.342
657.060	3198.025
657.188	3176.192
657.316	3189.833
657.444	3150.533
657.572	3157.442
657.700	3149.183
657.828	3154.200
657.956	3161.008
658.085	3198.008
658.213	3186.858
658.341	3147.467
658.469	3150.808
658.597	3191.375
658.725	3142.892
658.853	3121.183
658.981	3106.750
659.110	3123.283
659.238	3133.433
659.366	3101.992
659.494	3084.808
659.622	3066.608
659.750	3051.133
659.878	3053.008
660.006	3069.808
660.135	3031.758
660.263	3046.683
660.391	3123.717
660.519	3090.975
660.647	3004.000
660.775	3016.217
660.903	2969.233
661.031	2999.717
661.160	3013.625
661.288	3001.267
661.416	2994.708
661.544	2964.300
661.672	2979.383
661.800	2968.350
661.928	2948.500
662.056	3012.108
662.185	2919.950
662.313	2945.558
662.441	2992.542
662.569	2937.317
662.697	2914.467
662.825	2911.792
662.953	2875.767
663.081	2896.325
663.210	2880.858
663.338	2865.208
663.466	2855.817
663.594	2883.650
663.722	2832.500
663.850	2831.517
663.978	2833.517
664.106	2874.167
664.235	2819.708
664.363	2862.125
664.491	2831.650
664.619	2809.958
664.747	2823.842
664.875	2797.667
665.003	2807.400
665.131	2772.433
665.260	2805.708
665.388	2761.850
665.516	2754.725
665.644	2769.283
665.772	2763.825
665.900	2768.217
666.028	2734.000
666.156	2758.158
666.285	2731.658
666.413	2742.925
666.541	2739.883
666.669	2723.608
666.797	2677.292
666.925	2672.825
667.053	2735.625
667.181	2662.508
667.310	2682.133
667.438	2682.283
667.566	2668.767
667.694	2681.625
667.822	2658.383
667.950	2637.375
668.078	2631.133
668.206	2646.267
668.335	2605.867
668.463	2631.700
668.591	2608.933
668.719	2624.483
668.847	2598.417
668.975	2593.033
669.103	2592.442
669.231	2595.858
669.360	2562.483
669.488	2565.825
669.616	2549.242
669.744	2562.592
669.872	2539.000
670.000	2546.508
670.128	2515.233
670.256	2518.542
670.385	2518.983
670.513	2518.683
670.641	2525.333
670.769	2512.558
670.897	2477.500
671.025	2502.625
671.153	2479.650
671.281	2484.600
671.410	2506.375
671.538	2466.867
671.666	2468.650
671.794	2458.458
671.922	2443.383
672.050	2452.275
672.178	2430.333
672.306	2426.633
672.435	2428.617
672.563	2428.567
672.691	2408.942
672.819	2404.775
672.947	2395.017
673.075	2372.808
673.203	2375.108
673.331	2369.533
673.460	2359.867
673.588	2347.575
673.716	2365.392
673.844	2346.092
673.972	2343.700
674.100	2333.350
674.228	2324.333
674.356	2306.767
674.485	2308.500
674.613	2280.067
674.741	2285.417
674.869	2267.758
674.997	2261.917
675.125	2272.342
675.253	2244.517
675.381	2239.358
675.510	2236.292
675.638	2231.017
675.766	2231.825
675.894	2216.392
676.022	2195.708
676.150	2193.392
676.278	2196.242
676.406	2193.383
676.535	2172.000
676.663	2174.550
676.791	2148.992
676.919	2142.850
677.047	2153.783
677.175	2125.217
677.303	2139.883
677.431	2108.200
677.560	2098.900
677.688	2101.692
677.816	2099.825
677.944	2083.775
678.072	2080.792
678.200	2069.117
678.328	2051.967
678.456	2042.958
678.585	2034.433
678.713	2033.917
678.841	2022.958
678.969	2019.200
679.097	2032.000
679.225	2012.358
679.353	2020.242
679.481	1978.617
679.610	1992.008
679.738	1974.525
679.866	1967.983
679.994	1957.408
680.122	1970.375
680.250	1947.692
680.378	1952.683
680.506	1932.500
680.635	1934.842
680.763	1939.000
680.891	1912.383
681.019	1919.842
681.147	1907.142
681.275	1895.683
681.403	1888.525
681.531	1899.625
681.660	1875.608
681.788	1864.925
681.916	1860.833
682.044	1868.708
682.172	1841.208
682.300	1835.200
682.428	1841.075
682.556	1850.633
682.685	1836.367
682.813	1829.483
682.941	1836.258
683.069	1812.658
683.197	1822.983
683.325	1801.550
683.453	1805.133
683.581	1783.050
683.710	1773.750
683.838	1784.042
683.966	1768.100
684.094	1770.583
684.222	1780.600
684.350	1754.333
684.478	1765.667
684.606	1766.042
684.735	1728.808
684.863	1745.633
684.991	1728.392
685.119	1730.933
685.247	1717.150
685.375	1712.408
685.503	1733.808
685.631	1733.417
685.760	1709.775
685.888	1703.233
686.016	1698.875
686.144	1691.992
686.272	1679.742
686.400	1696.900
686.528	1666.333
686.656	1680.392
686.785	1652.575
686.913	1677.100
687.041	1651.583
687.169	1659.200
687.297	1656.700
687.425	1645.358
687.553	1634.150
687.681	1648.475
687.810	1635.133
687.938	1627.775
688.066	1640.467
688.194	1630.325
688.322	1614.100
688.450	1611.767
688.578	1616.100
688.706	1618.967
688.835	1604.650
688.963	1611.458
689.091	1604.133
689.219	1571.900
689.347	1578.975
689.475	1584.883
689.603	1572.767
689.731	1578.092
689.860	1571.750
689.988	1565.333
690.116	1567.300
690.244	1562.117
690.372	1559.467
690.500	1545.400
690.628	1542.783
690.756	1549.283
690.885	1538.458
691.013	1525.317
691.141	1531.208
691.269	1523.292
691.397	1517.742
691.525	1529.567
691.653	1522.008
691.781	1517.517
691.910	1510.983
692.038	1503.025
692.166	1491.375
692.294	1492.283
692.422	1479.917
692.550	1492.450
692.678	1476.075
692.806	1479.408
692.935	1461.458
693.063	1463.850
693.191	1460.350
693.319	1451.842
693.447	1446.700
693.575	1455.000
693.703	1437.808
693.831	1443.183
693.960	1432.442
694.088	1433.550
694.216	1419.683
694.344	1421.283
694.472	1429.000
694.600	1407.100
694.728	1402.700
694.856	1397.150
694.985	1393.000
695.113	1395.183
695.241	1395.767
695.369	1385.592
695.497	1384.233
695.625	1389.933
695.753	1375.708
695.881	1355.142
696.010	1362.233
696.138	1353.150
696.266	1350.567
696.394	1350.117
696.522	1338.008
696.650	1324.550
696.778	1327.125
696.906	1325.717
697.035	1325.533
697.163	1305.175
697.291	1311.675
697.419	1298.533
697.547	1289.817
697.675	1292.842
697.803	1293.808
697.931	1284.617
698.060	1285.683
698.188	1273.817
698.316	1275.883
698.444	1261.567
698.572	1257.742
698.700	1264.942
698.828	1253.875
698.956	1242.117
699.085	1236.192
699.213	1221.675
699.341	1228.908
699.469	1230.142
699.597	1236.858
699.725	1224.750
699.853	1211.650
699.981	1211.100
700.110	1199.267
700.238	1205.500
700.366	1192.908
700.494	1188.467
700.622	1193.733
700.750	1181.492
700.878	1188.233
701.006	1158.742
701.135	1166.600
701.263	1163.917
701.391	1149.542
701.519	1158.458
701.647	1142.650
701.775	1158.675
701.903	1146.583
702.031	1141.850
702.160	1138.292
702.288	1130.083
702.416	1128.083
702.544	1131.042
702.672	1121.892
702.800	1123.450
702.928	1118.900
703.056	1117.400
703.185	1113.425
703.313	1113.300
703.441	1093.942
703.569	1102.458
703.697	1098.183
703.825	1099.358
703.953	1090.192
704.081	1079.633
704.210	1081.975
704.338	1080.450
704.466	1074.233
704.594	1070.917
704.722	1065.142
704.850	1067.525
704.978	1053.150
705.106	1064.025
705.235	1047.142
705.363	1042.133
705.491	1048.117
705.619	1035.350
705.747	1034.758
705.875	1032.383
706.003	1027.942
706.131	1036.350
706.260	1016.883
706.388	1018.750
706.516	1013.867
706.644	1005.583
706.772	1005.000
706.900	996.275
707.028	998.408
707.156	989.283
707.285	993.492
707.413	980.667
707.541	974.867
707.669	972.342
707.797	973.450
707.925	983.350
708.053	973.650
708.181	971.825
708.310	955.392
708.438	953.175
708.566	949.158
708.694	948.217
708.822	957.342
708.950	943.992
709.078	930.892
709.206	935.242
709.335	930.050
709.463	926.083
709.591	922.175
709.719	917.767
709.847	908.342
709.975	902.000
710.103	897.792
710.231	900.650
710.360	896.342
710.488	889.250
710.616	889.000
710.744	884.058
710.872	882.983
711.000	881.100
711.128	865.925
711.256	870.892
711.385	874.333
711.513	864.033
711.641	862.658
711.769	859.400
711.897	861.408
712.025	848.642
712.153	846.033
712.281	851.967
712.410	841.208
712.538	842.050
712.666	824.917
712.794	836.083
712.922	835.817
713.050	832.325
713.178	820.717
713.306	823.808
713.435	818.450
713.563	816.933
713.691	816.842
713.819	806.308
713.947	799.742
714.075	796.267
714.203	800.300
714.331	798.558
714.460	787.733
714.588	792.742
714.716	783.150
714.844	781.975
714.972	771.833
715.100	781.442
715.228	779.533
715.356	772.450
715.485	775.492
715.613	767.242
715.741	759.142
715.869	760.383
715.997	763.742
716.125	753.317
716.253	753.025
716.381	754.333
716.510	758.967
716.638	745.283
716.766	738.967
716.894	736.992
717.022	736.233
717.150	733.875
717.278	732.467
717.406	734.408
717.535	735.475
717.663	728.433
717.791	725.925
717.919	721.900
718.047	717.667
718.175	728.858
718.303	720.992
718.431	713.167
718.560	710.483
718.688	709.200
718.816	705.583
718.944	703.433
719.072	704.917
719.200	698.417
719.328	697.925
719.456	697.350
719.585	697.958
719.713	692.208
719.841	694.983
719.969	683.875
720.097	684.692
720.225	675.342
720.353	680.183
720.481	677.117
720.610	666.183
720.738	670.492
720.866	665.983
720.994	670.183
721.122	667.392
721.250	660.525
721.378	660.283
721.506	656.700
721.635	654.475
721.763	651.867
721.891	651.175
722.019	642.875
722.147	645.542
722.275	643.592
722.403	633.708
722.531	638.358
722.660	639.075
722.788	637.692
722.916	628.500
723.044	625.300
723.172	627.192
723.300	627.233
723.428	628.408
723.556	618.842
723.685	620.050
723.813	616.817
723.941	611.450
724.069	613.475
724.197	608.600
724.325	605.833
724.453	601.700
724.581	607.683
724.710	603.900
724.838	596.592
724.966	590.342
725.094	586.908
725.222	586.808
725.350	588.950
725.478	582.258
725.606	583.700
725.735	575.967
725.863	578.000
725.991	568.958
726.119	572.317
726.247	574.142
726.375	562.075
726.503	566.775
726.631	556.858
726.760	559.617
726.888	554.925
727.016	554.817
727.144	560.033
727.272	555.692
727.400	542.475
727.528	537.117
727.656	539.958
727.785	539.108
727.913	537.817
728.041	536.192
728.169	545.483
728.297	532.258
728.425	526.042
728.553	525.958
728.681	521.475
728.810	526.900
728.938	524.067
729.066	519.758
729.194	513.600
729.322	511.583
729.450	510.058
729.578	520.958
729.706	509.092
729.835	510.192
729.963	504.742
730.091	503.192
730.219	500.067
730.347	498.317
730.475	492.292
730.603	492.050
730.731	494.725
730.860	493.208
730.988	487.800
731.116	486.875
731.244	490.958
731.372	480.458
731.500	488.400
731.628	479.383
731.756	475.700
731.885	473.608
732.013	481.525
732.141	470.142
732.269	466.958
732.397	470.500
732.525	468.233
732.653	470.075
732.781	462.625
732.910	464.633
733.038	463.575
733.166	459.800
733.294	461.242
733.422	460.200
733.550	453.792
733.678	449.183
733.806	457.833
733.935	450.675
734.063	450.492
734.191	446.942
734.319	441.142
734.447	444.508
734.575	446.092
734.703	441.733
734.831	442.292
734.960	441.417
735.088	437.267
735.216	438.492
735.344	432.250
735.472	434.958
735.600	432.408
735.728	432.333
735.856	424.658
735.985	427.167
736.113	430.100
736.241	423.617
736.369	424.658
736.497	426.608
736.625	421.583
736.753	417.425
736.881	419.058
737.010	417.242
737.138	419.508
737.266	416.317
737.394	413.600
737.522	411.567
737.650	411.242
737.778	404.233
737.906	407.975
738.035	401.992
738.163	403.342
738.291	400.908
738.419	406.033
738.547	403.692
738.675	400.000
738.803	399.225
738.931	395.067
739.060	402.800
739.188	395.767
739.316	392.258
739.444	391.333
739.572	394.308
739.700	385.558
739.828	391.233
739.956	388.533
740.085	386.950
740.213	388.292
740.341	378.617
740.469	385.217
740.597	380.975
740.725	382.167
740.853	379.100
740.981	373.842
741.110	374.233
741.238	376.942
741.366	373.342
741.494	371.292
741.622	370.458
741.750	371.575
741.878	370.392
742.006	367.133
742.135	368.417
742.263	369.192
742.391	360.917
742.519	368.042
742.647	361.633
742.775	370.067
742.903	358.717
743.031	360.800
743.160	358.108
743.288	355.792
743.416	350.750
743.544	347.300
743.672	355.142
743.800	351.533
743.928	355.617
744.056	349.683
744.185	353.558
744.313	353.442
744.441	348.333
744.569	346.558
744.697	341.292
744.825	348.383
744.953	341.542
745.081	342.025
745.210	346.100
745.338	338.775
745.466	339.242
745.594	338.550
745.722	335.242
745.850	335.425
745.978	334.575
746.106	337.117
746.235	330.533
746.363	335.358
746.491	330.575
746.619	328.158
746.747	329.100
746.875	326.775
747.003	323.458
747.131	322.567
747.260	323.200
747.388	319.342
747.516	323.183
747.644	324.250
747.772	323.842
747.900	315.750
748.028	321.000
748.156	314.217
748.285	320.617
748.413	314.925
748.541	316.825
748.669	310.933
748.797	312.600
748.925	314.083
749.053	310.117
749.181	306.900
749.310	309.075
749.438	307.050
749.566	305.250
749.694	303.917
749.822	304.450
749.950	304.475
750.078	307.533
750.206	302.725
750.335	304.992
750.463	300.492
750.591	302.275
750.719	300.483
750.847	295.150
750.975	294.308
751.103	293.592
751.231	293.617
751.360	295.858
751.488	294.983
751.616	288.492
751.744	294.583
751.872	286.508
752.000	288.225
752.128	288.550
752.256	285.058
752.385	284.125
752.513	286.092
752.641	282.642
752.769	285.383
752.897	285.192
753.025	278.700
753.153	279.158
753.281	279.817
753.410	282.358
753.538	277.575
753.666	276.717
753.794	277.808
753.922	277.875
754.050	275.417
754.178	273.217
754.306	270.983
754.435	272.975
754.563	273.025
754.691	275.558
754.819	272.467
754.947	267.542
755.075	269.908
755.203	269.100
755.331	265.242
755.460	262.567
755.588	265.600
755.716	264.225
755.844	259.658
755.972	266.600
756.100	262.867
756.228	261.608
756.356	261.383
756.485	265.083
756.613	261.067
756.741	258.983
756.869	259.608
756.997	258.833
757.125	259.467
757.253	257.667
757.381	258.667
757.510	252.675
757.638	252.250
757.766	255.950
757.894	249.792
758.022	253.508
758.150	253.983
758.278	253.800
758.406	249.600
758.535	251.967
758.663	253.300
758.791	248.892
758.919	244.967
759.047	244.358
759.175	247.200
759.303	246.442
759.431	246.292
759.560	242.967
759.688	244.558
759.816	244.483
759.944	247.850
760.072	241.958
760.200	239.900
760.328	241.050
760.456	240.458
760.585	240.242
760.713	238.000
760.841	235.817
760.969	236.125
761.097	238.008
761.225	238.400
761.353	235.900
761.481	233.192
761.610	233.408
761.738	234.050
761.866	231.342
761.994	231.700
762.122	228.792
762.250	229.458
762.378	229.808
762.506	227.825
762.635	228.233
762.763	226.025
762.891	228.958
763.019	227.575
763.147	224.800
763.275	226.158
763.403	223.133
763.531	220.783
763.660	221.867
763.788	220.042
763.916	224.042
764.044	221.850
764.172	223.242
764.300	220.058
764.428	219.533
764.556	219.333
764.685	217.067
764.813	215.958
764.941	219.500
765.069	216.617
765.197	218.017
765.325	214.667
765.453	211.583
765.581	218.367
765.710	215.175
765.838	214.683
765.966	218.000
766.094	213.483
766.222	212.458
766.350	212.158
766.478	210.408
766.606	214.792
766.735	209.942
766.863	206.717
766.991	210.233
767.119	210.300
767.247	208.192
767.375	208.492
767.503	211.233
767.631	207.967
767.760	207.542
767.888	205.425
768.016	205.825
768.144	202.933
768.272	204.842
768.400	205.250
768.528	201.667
768.656	201.525
768.785	203.608
768.913	198.167
769.041	202.175
769.169	200.908
769.297	198.392
769.425	198.125
769.553	197.908
769.681	198.658
769.810	200.383
769.938	197.425
770.066	197.242
770.194	197.575
770.322	195.583
770.450	194.700
770.578	195.483
770.706	194.775
770.835	195.225
770.963	194.125
771.091	192.908
771.219	194.725
771.347	191.408
771.475	193.017
771.603	190.817
771.731	190.992
771.860	190.575
771.988	191.233
772.116	192.258
772.244	187.375
772.372	188.758
772.500	190.408
772.628	189.908
772.756	185.542
772.885	191.008
773.013	188.592
773.141	184.600
773.269	186.942
773.397	186.050
773.525	187.150
773.653	185.158
773.781	184.733
773.910	183.792
774.038	183.733
774.166	184.575
774.294	184.233
774.422	181.500
774.550	182.667
774.678	182.942
774.806	181.992
774.935	182.442
775.063	179.767
775.191	181.400
775.319	180.108
775.447	181.133
775.575	178.742
775.703	177.408
775.831	178.817
775.960	179.142
776.088	178.550
776.216	176.817
776.344	177.167
776.472	179.175
776.600	178.142
776.728	175.792
776.856	175.817
776.985	175.983
777.113	175.175
777.241	173.667
777.369	174.950
777.497	173.808
777.625	173.617
777.753	171.567
777.881	172.775
778.010	172.650
778.138	170.517
778.266	171.392
778.394	172.633
778.522	171.767
778.650	169.908
778.778	172.650
778.906	172.108
779.035	170.317
779.163	169.283
779.291	169.283
779.419	169.667
779.547	170.875
779.675	168.567
779.803	167.100
779.931	167.192
780.060	168.425
780.188	168.450
780.316	165.067
780.444	166.142
780.572	165.325
780.700	166.717
780.828	167.008
780.956	164.250
781.085	164.300
781.213	163.767
781.341	165.350
781.469	165.642
781.597	165.450
781.725	163.517
781.853	165.275
781.981	160.867
782.110	163.275
782.238	160.408
782.366	163.442
782.494	162.308
782.622	162.150
782.750	160.200
782.878	161.575
783.006	160.417
783.135	161.000
783.263	159.200
783.391	159.708
783.519	158.300
783.647	156.983
783.775	157.575
783.903	159.025
784.031	156.142
784.160	155.842
784.288	154.992
784.416	157.558
784.544	154.508
784.672	155.475
784.800	155.692
784.928	153.067
785.056	153.442
785.185	154.700
785.313	153.033
785.441	153.017
785.569	155.467
785.697	153.883
785.825	152.408
785.953	149.425
786.081	152.683
786.210	150.892
786.338	150.333
786.466	149.375
786.594	151.325
786.722	151.225
786.850	151.017
786.978	150.492
787.106	149.592
787.235	148.417
787.363	152.208
787.491	149.450
787.619	149.717
787.747	148.867
787.875	146.233
788.003	148.850
788.131	147.325
788.260	148.017
788.388	149.108
788.516	145.617
788.644	146.783
788.772	145.508
788.900	144.667
789.028	146.183
789.156	147.000
789.285	144.542
789.413	146.133
789.541	145.717
789.669	144.625
789.797	144.900
789.925	146.908
790.053	146.342
790.181	143.225
790.310	143.533
790.438	143.392
790.566	141.858
790.694	142.217
790.822	142.583
790.950	143.042
791.078	139.817
791.206	142.158
791.335	140.442
791.463	142.067
791.591	140.167
791.719	141.458
791.847	140.383
791.975	141.325
792.103	139.758
792.231	139.750
792.360	138.783
792.488	138.467
792.616	141.875
792.744	140.142
792.872	140.825
793.000	138.942
793.128	138.567
793.256	138.133
793.385	136.908
793.513	138.283
793.641	138.692
793.769	138.033
793.897	136.200
794.025	138.758
794.153	137.508
794.281	136.667
794.410	135.217
794.538	136.942
794.666	137.008
794.794	135.283
794.922	136.075
795.050	135.283
795.178	135.567
795.306	133.558
795.435	135.833
795.563	134.100
795.691	135.175
795.819	134.642
795.947	133.767
796.075	133.600
796.203	134.775
796.331	134.750
796.460	131.933
796.588	134.008
796.716	133.375
796.844	134.717
796.972	133.067
797.100	130.875
797.228	132.625
797.356	133.225
797.485	130.900
797.613	132.025
797.741	131.892
797.869	131.825
797.997	130.608
798.125	132.758
798.253	130.658
798.381	131.192
798.510	129.933
798.638	130.008
798.766	131.442
798.894	130.158
799.022	130.242
799.150	129.575
799.278	127.425
799.406	130.550
799.535	129.217
799.663	130.233
799.791	128.508
799.919	127.908
800.047	129.392
800.175	130.275
800.303	129.858
800.431	129.008
800.560	129.633
800.688	127.658
800.816	128.358
800.944	127.900
801.072	129.267
801.200	126.833
801.328	126.983
801.456	127.967
801.585	129.350
801.713	127.367
801.841	128.100
801.969	126.467
802.097	127.917
802.225	126.817
802.353	129.692
802.481	126.983
802.610	126.917
802.738	125.242
802.866	126.633
802.994	126.392
803.122	125.617
803.250	126.808
803.378	127.500
803.506	126.258
803.635	125.767
803.763	124.908
803.891	125.117
804.019	125.567
804.147	126.333
804.275	123.350
804.403	123.558
804.531	124.325
804.660	123.892
804.788	124.208
804.916	124.633
805.044	124.358
805.172	123.500
805.300	124.492
805.428	123.858
805.556	125.367
805.685	125.200
805.813	125.450
805.941	123.117
806.069	122.950
806.197	123.542
806.325	122.017
806.453	123.975
806.581	123.233
806.710	123.333
806.838	121.017
806.966	122.342
807.094	122.108
807.222	123.300
807.350	121.283
807.478	122.692
807.606	120.783
807.735	121.508
807.863	120.667
807.991	123.042
808.119	121.175
808.247	119.933
808.375	121.117
808.503	119.617
808.631	122.308
808.760	120.975
808.888	122.192
809.016	120.358
809.144	122.475
809.272	121.467
809.400	120.383
809.528	121.425
809.656	119.475
809.785	119.083
809.913	120.225
810.041	120.400
810.169	120.308
810.297	119.217
810.425	119.100
810.553	118.667
810.681	120.025
810.810	118.750
810.938	119.683
811.066	117.358
811.194	118.175
811.322	119.683
811.450	117.950
811.578	118.658
811.706	118.875
811.835	119.808
811.963	118.542
812.091	118.992
812.219	118.592
812.347	116.242
812.475	117.942
812.603	119.258
812.731	117.317
812.860	118.792
812.988	119.058
813.116	117.492
813.244	117.858
813.372	118.925
813.500	118.517
813.628	119.558
813.756	116.308
813.885	118.483
814.013	116.967
814.141	117.283
814.269	117.192
814.397	117.067
814.525	117.475
814.653	117.017
814.781	116.233
814.910	117.342
815.038	116.700
815.166	118.233
815.294	115.483
815.422	117.125
815.550	116.408
815.678	114.425
815.806	118.775
815.935	116.158
816.063	115.500
816.191	114.750
816.319	116.542
816.447	116.658
816.575	116.867
816.703	116.058
816.831	115.933
816.960	117.208
817.088	114.975
817.216	115.033
817.344	115.117
817.472	116.500
817.600	115.225
817.728	115.942
817.856	116.317
817.985	113.533
818.113	115.783
818.241	114.850
818.369	114.733
818.497	115.808
818.625	115.283
818.753	115.025
818.881	115.058
819.010	115.000
819.138	113.983
819.266	113.917
819.394	113.575
819.522	113.100
819.650	114.275
819.778	114.183
819.906	113.650
820.035	114.483
820.163	113.500
820.291	112.783
820.419	112.342
820.547	115.358
820.675	112.267
820.803	113.733
820.931	113.350
821.060	111.617
821.188	113.858
821.316	112.892
821.444	113.550
821.572	113.333
821.700	113.650
821.828	113.075
821.956	113.842
822.085	113.408
822.213	113.733
822.341	113.258
822.469	112.433
822.597	112.325
822.725	112.517
822.853	113.275
822.981	112.000
823.110	112.642
823.238	111.458
823.366	112.108
823.494	111.508
823.622	112.850
823.750	112.908
823.878	111.033
824.006	111.742
824.135	113.592
824.263	113.008
824.391	111.375
824.519	112.133
824.647	111.858
824.775	113.467
824.903	111.800
825.031	112.217
825.160	113.033
825.288	112.150
825.416	111.658
825.544	111.350
825.672	111.442
825.800	112.492
825.928	112.592
826.056	111.933
826.185	111.558
826.313	111.583
826.441	110.967
826.569	111.625
826.697	112.325
826.825	111.208
826.953	111.900
827.081	110.542
827.210	111.008
827.338	110.342
827.466	110.592
827.594	111.125
827.722	112.192
827.850	112.342
827.978	110.783
828.106	110.892
828.235	111.758
828.363	111.400
828.491	111.450
828.619	111.083
828.747	110.700
828.875	110.625
829.003	111.408
829.131	110.767
829.260	112.525
829.388	110.017
829.516	110.883
829.644	110.425
829.772	111.517
829.900	111.533
830.028	111.000
830.156	110.883
830.285	110.317
830.413	110.542
830.541	110.058
830.669	111.167
830.797	110.458
830.925	110.575
831.053	110.592
831.181	110.925
831.310	111.233
831.438	111.225
831.566	110.267
831.694	109.833
831.822	109.358
831.950	110.367
832.078	111.000
832.206	110.183
832.335	109.383
832.463	109.792
832.591	109.358
832.719	110.075
832.847	109.633
832.975	109.108
833.103	110.050
833.231	108.858
833.360	110.250
833.488	109.808
833.616	109.275
833.744	108.842
833.872	111.183
834.000	111.467
834.128	110.083
834.256	109.150
834.385	108.975
834.513	110.900
834.641	107.917
834.769	108.650
834.897	109.792
835.025	108.000
835.153	108.067
835.281	108.342
835.410	109.333
835.538	109.858
835.666	109.600
835.794	109.042
835.922	109.342
836.050	108.683
836.178	108.858
836.306	109.167
836.435	109.267
836.563	108.858
836.691	109.283
836.819	109.600
836.947	108.233
837.075	109.433
837.203	108.475
837.331	108.517
837.460	109.150
837.588	108.825
837.716	109.217
837.844	109.000
837.972	108.575
838.100	108.800
838.228	108.467
838.356	108.533
838.485	107.300
838.613	108.492
838.741	109.067
838.869	108.092
838.997	108.867
839.125	106.908
839.253	106.942
839.381	108.817
839.510	108.375
839.638	109.367
839.766	107.808
839.894	108.783
840.022	109.058
840.150	108.583
840.278	108.525
840.406	108.067
840.535	109.975
840.663	108.317
840.791	108.175
840.919	108.100
841.047	108.017
841.175	108.933
841.303	108.983
841.431	107.658
841.560	108.258
841.688	107.250
841.816	107.325
841.944	107.900
842.072	108.192
842.200	107.700
842.328	108.583
842.456	108.083
842.585	108.992
842.713	107.192
842.841	107.675
842.969	108.225
843.097	107.583
843.225	108.583
843.353	107.792
843.481	107.458
843.610	108.650
843.738	107.908
843.866	106.833
