90-80-0_at_679.99nm_cut_at_1253.00Y_01.dat
24.01.2024
13:26:30
cut middle at Y: 1253.00
top cursor: 1313 down cursor: 1193 mean of: 120 lines , 2560 datapoints
wavelength(nm)	intensity[arb. units]
515.994	878.117
516.122	829.100
516.250	814.492
516.378	815.008
516.506	815.475
516.635	824.950
516.763	827.775
516.891	824.117
517.019	830.533
517.147	832.550
517.275	828.542
517.403	831.533
517.531	821.458
517.660	829.875
517.788	826.550
517.916	833.667
518.044	831.550
518.172	837.292
518.300	832.167
518.428	830.683
518.556	831.683
518.685	827.833
518.813	835.633
518.941	839.450
519.069	841.950
519.197	840.733
519.325	847.758
519.453	835.833
519.581	840.950
519.710	844.542
519.838	846.900
519.966	842.417
520.094	853.425
520.222	847.808
520.350	845.283
520.478	856.383
520.606	859.000
520.735	853.017
520.863	865.792
520.991	860.067
521.119	858.000
521.247	862.283
521.375	872.417
521.503	869.233
521.631	866.292
521.760	873.958
521.888	879.158
522.016	876.425
522.144	879.092
522.272	892.083
522.400	890.150
522.528	890.275
522.656	889.425
522.785	891.083
522.913	891.025
523.041	891.642
523.169	897.350
523.297	895.017
523.425	898.375
523.553	890.692
523.681	904.558
523.810	903.358
523.938	907.833
524.066	898.058
524.194	905.217
524.322	909.208
524.450	911.867
524.578	903.317
524.706	907.825
524.835	910.342
524.963	914.425
525.091	907.875
525.219	907.583
525.347	908.450
525.475	915.783
525.603	911.900
525.731	906.400
525.860	912.983
525.988	912.642
526.116	922.883
526.244	904.917
526.372	910.242
526.500	913.175
526.628	920.800
526.756	915.233
526.885	913.875
527.013	917.683
527.141	917.667
527.269	918.433
527.397	912.783
527.525	911.092
527.653	910.958
527.781	920.183
527.910	915.650
528.038	916.325
528.166	920.683
528.294	921.108
528.422	918.350
528.550	918.883
528.678	925.742
528.806	921.925
528.935	924.908
529.063	925.075
529.191	931.725
529.319	929.683
529.447	934.550
529.575	937.608
529.703	924.867
529.831	925.908
529.960	933.408
530.088	935.475
530.216	927.008
530.344	924.492
530.472	934.650
530.600	934.408
530.728	937.958
530.856	930.058
530.985	927.775
531.113	926.758
531.241	930.025
531.369	929.392
531.497	926.400
531.625	929.683
531.753	926.833
531.881	926.642
532.010	922.967
532.138	933.025
532.266	923.667
532.394	926.250
532.522	917.975
532.650	922.767
532.778	932.108
532.906	916.508
533.035	925.833
533.163	926.200
533.291	917.500
533.419	919.717
533.547	914.825
533.675	928.333
533.803	914.692
533.931	917.233
534.060	918.542
534.188	915.908
534.316	918.317
534.444	916.200
534.572	925.042
534.700	927.958
534.828	927.233
534.956	918.825
535.085	931.292
535.213	920.333
535.341	928.183
535.469	928.242
535.597	937.767
535.725	939.225
535.853	941.100
535.981	937.417
536.110	941.158
536.238	943.533
536.366	948.800
536.494	944.683
536.622	953.408
536.750	950.033
536.878	952.733
537.006	959.750
537.135	954.983
537.263	955.258
537.391	964.800
537.519	956.283
537.647	959.975
537.775	961.275
537.903	967.075
538.031	967.608
538.160	964.692
538.288	970.583
538.416	972.492
538.544	963.525
538.672	968.017
538.800	965.075
538.928	968.883
539.056	976.442
539.185	974.200
539.313	961.650
539.441	970.292
539.569	975.292
539.697	966.100
539.825	977.558
539.953	976.108
540.081	966.933
540.210	974.358
540.338	976.125
540.466	980.717
540.594	977.092
540.722	971.950
540.850	973.400
540.978	970.292
541.106	958.400
541.235	974.492
541.363	972.408
541.491	963.492
541.619	970.175
541.747	969.508
541.875	972.192
542.003	964.700
542.131	967.117
542.260	965.692
542.388	972.958
542.516	963.033
542.644	966.283
542.772	966.558
542.900	965.892
543.028	963.975
543.156	968.117
543.285	969.650
543.413	968.017
543.541	976.742
543.669	967.975
543.797	966.083
543.925	969.625
544.053	974.225
544.181	970.250
544.310	961.142
544.438	971.633
544.566	972.183
544.694	966.175
544.822	974.600
544.950	971.525
545.078	965.083
545.206	963.508
545.335	972.258
545.463	968.042
545.591	963.683
545.719	972.817
545.847	978.108
545.975	970.867
546.103	969.967
546.231	975.833
546.360	965.675
546.488	975.692
546.616	970.725
546.744	972.033
546.872	971.367
547.000	971.933
547.128	973.633
547.256	964.658
547.385	962.567
547.513	966.333
547.641	966.975
547.769	961.358
547.897	962.125
548.025	961.725
548.153	965.067
548.281	957.433
548.410	960.217
548.538	959.683
548.666	961.633
548.794	964.867
548.922	960.600
549.050	968.792
549.178	956.967
549.306	966.433
549.435	955.317
549.563	955.792
549.691	956.650
549.819	959.650
549.947	961.458
550.075	959.392
550.203	954.758
550.331	955.667
550.460	953.867
550.588	955.758
550.716	955.583
550.844	953.058
550.972	946.758
551.100	954.067
551.228	947.275
551.356	958.533
551.485	949.183
551.613	950.733
551.741	940.333
551.869	942.825
551.997	941.142
552.125	937.292
552.253	944.075
552.381	940.667
552.510	942.017
552.638	940.092
552.766	940.550
552.894	936.875
553.022	939.242
553.150	928.583
553.278	922.967
553.406	931.317
553.535	927.292
553.663	928.967
553.791	921.458
553.919	922.700
554.047	932.058
554.175	920.658
554.303	914.083
554.431	911.408
554.560	917.108
554.688	922.025
554.816	921.692
554.944	913.958
555.072	917.867
555.200	924.083
555.328	908.892
555.456	908.775
555.585	910.658
555.713	910.600
555.841	910.825
555.969	907.100
556.097	909.675
556.225	904.200
556.353	908.608
556.481	900.683
556.610	911.200
556.738	910.050
556.866	910.442
556.994	897.608
557.122	899.042
557.250	900.525
557.378	905.125
557.506	903.883
557.635	904.008
557.763	900.192
557.891	909.817
558.019	898.092
558.147	900.917
558.275	899.592
558.403	904.900
558.531	900.833
558.660	899.192
558.788	901.342
558.916	896.742
559.044	900.342
559.172	896.325
559.300	901.292
559.428	896.783
559.556	899.667
559.685	899.650
559.813	889.500
559.941	896.300
560.069	899.267
560.197	904.017
560.325	889.992
560.453	896.650
560.581	891.633
560.710	888.500
560.838	892.900
560.966	891.233
561.094	895.967
561.222	891.725
561.350	884.508
561.478	884.950
561.606	893.575
561.735	887.842
561.863	881.250
561.991	876.617
562.119	885.183
562.247	881.400
562.375	880.483
562.503	879.867
562.631	877.192
562.760	875.983
562.888	877.117
563.016	882.917
563.144	870.808
563.272	876.425
563.400	872.592
563.528	870.667
563.656	877.708
563.785	879.542
563.913	866.958
564.041	863.758
564.169	869.833
564.297	873.508
564.425	874.383
564.553	877.508
564.681	873.550
564.810	877.175
564.938	869.908
565.066	867.667
565.194	870.358
565.322	873.208
565.450	878.242
565.578	872.917
565.706	867.267
565.835	865.325
565.963	863.592
566.091	866.942
566.219	871.600
566.347	865.000
566.475	873.108
566.603	872.375
566.731	866.967
566.860	872.017
566.988	871.542
567.116	872.950
567.244	874.208
567.372	880.900
567.500	870.900
567.628	867.108
567.756	865.408
567.885	877.167
568.013	877.825
568.141	869.175
568.269	870.833
568.397	872.167
568.525	876.800
568.653	871.100
568.781	871.650
568.910	878.092
569.038	872.958
569.166	872.850
569.294	870.275
569.422	875.308
569.550	860.783
569.678	871.617
569.806	875.908
569.935	869.475
570.063	871.383
570.191	875.683
570.319	875.467
570.447	873.642
570.575	874.583
570.703	874.383
570.831	884.258
570.960	875.075
571.088	871.117
571.216	871.308
571.344	867.950
571.472	874.533
571.600	876.458
571.728	871.417
571.856	873.950
571.985	874.800
572.113	878.700
572.241	866.683
572.369	880.558
572.497	876.550
572.625	877.708
572.753	876.950
572.881	876.567
573.010	866.350
573.138	881.767
573.266	875.292
573.394	874.642
573.522	880.000
573.650	873.758
573.778	873.500
573.906	878.600
574.035	871.917
574.163	878.608
574.291	875.567
574.419	872.575
574.547	881.667
574.675	878.250
574.803	876.358
574.931	870.433
575.060	874.317
575.188	871.308
575.316	874.267
575.444	873.492
575.572	877.525
575.700	875.675
575.828	883.067
575.956	882.392
576.085	874.708
576.213	880.167
576.341	872.917
576.469	872.792
576.597	876.983
576.725	872.417
576.853	874.642
576.981	872.067
577.110	871.842
577.238	871.517
577.366	868.383
577.494	865.808
577.622	873.225
577.750	867.225
577.878	871.567
578.006	874.250
578.135	870.092
578.263	867.592
578.391	879.633
578.519	874.350
578.647	878.800
578.775	865.017
578.903	872.933
579.031	872.325
579.160	863.850
579.288	869.258
579.416	870.175
579.544	877.708
579.672	874.683
579.800	867.742
579.928	867.183
580.056	869.183
580.185	870.442
580.313	873.433
580.441	878.450
580.569	869.300
580.697	875.908
580.825	879.092
580.953	877.017
581.081	870.658
581.210	880.125
581.338	877.867
581.466	881.742
581.594	883.992
581.722	871.967
581.850	880.608
581.978	885.417
582.106	883.150
582.235	883.567
582.363	881.292
582.491	888.275
582.619	889.900
582.747	888.058
582.875	881.992
583.003	891.183
583.131	893.942
583.260	896.233
583.388	893.500
583.516	902.633
583.644	901.608
583.772	897.217
583.900	904.950
584.028	904.017
584.156	902.117
584.285	909.225
584.413	900.583
584.541	909.867
584.669	908.433
584.797	913.058
584.925	914.942
585.053	913.142
585.181	917.333
585.310	926.683
585.438	920.808
585.566	925.525
585.694	924.025
585.822	924.958
585.950	926.567
586.078	925.892
586.206	932.308
586.335	934.633
586.463	944.475
586.591	943.767
586.719	941.958
586.847	942.908
586.975	940.875
587.103	946.175
587.231	935.742
587.360	943.950
587.488	946.842
587.616	936.592
587.744	949.667
587.872	948.092
588.000	946.092
588.128	952.800
588.256	950.850
588.385	939.933
588.513	952.033
588.641	956.450
588.769	960.842
588.897	949.300
589.025	952.608
589.153	954.825
589.281	955.500
589.410	945.917
589.538	953.242
589.666	960.633
589.794	950.692
589.922	961.567
590.050	963.442
590.178	954.125
590.306	956.725
590.435	952.642
590.563	963.400
590.691	968.292
590.819	958.242
590.947	969.908
591.075	955.650
591.203	958.275
591.331	975.675
591.460	967.775
591.588	965.292
591.716	972.800
591.844	977.208
591.972	972.017
592.100	967.683
592.228	977.433
592.356	970.150
592.485	961.150
592.613	973.658
592.741	973.100
592.869	978.650
592.997	974.575
593.125	979.183
593.253	988.717
593.381	981.883
593.510	990.225
593.638	985.842
593.766	989.158
593.894	983.758
594.022	984.367
594.150	988.725
594.278	998.933
594.406	993.583
594.535	998.425
594.663	1002.600
594.791	1000.700
594.919	997.533
595.047	1008.292
595.175	1006.192
595.303	1005.242
595.431	1003.292
595.560	1015.617
595.688	1008.417
595.816	1010.367
595.944	1015.842
596.072	1029.475
596.200	1016.308
596.328	1019.950
596.456	1032.092
596.585	1019.175
596.713	1032.633
596.841	1023.425
596.969	1028.683
597.097	1037.150
597.225	1036.867
597.353	1041.125
597.481	1032.350
597.610	1041.033
597.738	1036.908
597.866	1030.733
597.994	1043.867
598.122	1053.058
598.250	1044.908
598.378	1042.333
598.506	1052.225
598.635	1045.267
598.763	1054.400
598.891	1057.708
599.019	1055.192
599.147	1045.000
599.275	1048.758
599.403	1066.158
599.531	1060.317
599.660	1063.225
599.788	1066.542
599.916	1061.550
600.044	1068.267
600.172	1075.600
600.300	1077.775
600.428	1074.333
600.556	1077.992
600.685	1090.792
600.813	1075.292
600.941	1094.733
601.069	1090.625
601.197	1092.500
601.325	1085.867
601.453	1089.350
601.581	1099.025
601.710	1103.242
601.838	1108.983
601.966	1108.917
602.094	1108.167
602.222	1109.825
602.350	1105.325
602.478	1112.258
602.606	1122.475
602.735	1114.975
602.863	1127.792
602.991	1140.408
603.119	1140.225
603.247	1136.767
603.375	1140.633
603.503	1140.308
603.631	1144.708
603.760	1150.075
603.888	1150.358
604.016	1148.675
604.144	1147.033
604.272	1160.617
604.400	1157.950
604.528	1152.283
604.656	1168.275
604.785	1163.050
604.913	1175.442
605.041	1178.583
605.169	1177.450
605.297	1174.333
605.425	1182.842
605.553	1190.067
605.681	1187.017
605.810	1190.850
605.938	1190.717
606.066	1184.433
606.194	1199.150
606.322	1197.725
606.450	1208.942
606.578	1203.617
606.706	1214.792
606.835	1207.883
606.963	1220.583
607.091	1222.900
607.219	1209.292
607.347	1214.058
607.475	1232.008
607.603	1217.725
607.731	1223.333
607.860	1221.392
607.988	1227.050
608.116	1227.883
608.244	1237.683
608.372	1232.825
608.500	1229.875
608.628	1230.000
608.756	1233.383
608.885	1242.583
609.013	1242.100
609.141	1241.117
609.269	1240.025
609.397	1239.242
609.525	1245.325
609.653	1243.792
609.781	1248.425
609.910	1247.092
610.038	1255.867
610.166	1253.725
610.294	1252.933
610.422	1260.742
610.550	1257.233
610.678	1255.158
610.806	1266.900
610.935	1256.383
611.063	1260.442
611.191	1270.575
611.319	1268.467
611.447	1267.750
611.575	1262.967
611.703	1263.708
611.831	1279.142
611.960	1276.517
612.088	1282.525
612.216	1284.242
612.344	1284.250
612.472	1271.075
612.600	1282.858
612.728	1277.117
612.856	1286.417
612.985	1283.483
613.113	1279.575
613.241	1295.625
613.369	1294.425
613.497	1288.083
613.625	1304.183
613.753	1295.100
613.881	1294.817
614.010	1295.908
614.138	1295.517
614.266	1297.908
614.394	1291.992
614.522	1299.317
614.650	1316.242
614.778	1304.675
614.906	1323.217
615.035	1309.342
615.163	1309.217
615.291	1326.233
615.419	1331.167
615.547	1314.517
615.675	1319.533
615.803	1325.308
615.931	1342.192
616.060	1335.483
616.188	1331.558
616.316	1333.792
616.444	1323.858
616.572	1336.358
616.700	1335.092
616.828	1358.483
616.956	1361.767
617.085	1374.925
617.213	1356.858
617.341	1352.383
617.469	1360.292
617.597	1367.125
617.725	1367.117
617.853	1364.375
617.981	1373.800
618.110	1382.042
618.238	1379.442
618.366	1386.758
618.494	1396.758
618.622	1387.142
618.750	1391.158
618.878	1397.617
619.006	1397.558
619.135	1412.067
619.263	1412.758
619.391	1404.942
619.519	1416.358
619.647	1431.108
619.775	1423.308
619.903	1424.242
620.031	1428.533
620.160	1441.383
620.288	1430.350
620.416	1440.933
620.544	1442.725
620.672	1452.367
620.800	1443.258
620.928	1462.858
621.056	1460.625
621.185	1461.183
621.313	1465.967
621.441	1475.783
621.569	1485.025
621.697	1484.425
621.825	1499.833
621.953	1481.975
622.081	1492.292
622.210	1488.275
622.338	1488.233
622.466	1494.858
622.594	1507.600
622.722	1506.842
622.850	1510.283
622.978	1509.100
623.106	1510.867
623.235	1524.217
623.363	1523.908
623.491	1520.217
623.619	1517.150
623.747	1516.775
623.875	1533.150
624.003	1525.617
624.131	1526.483
624.260	1513.250
624.388	1533.125
624.516	1549.550
624.644	1526.725
624.772	1549.600
624.900	1552.542
625.028	1536.292
625.156	1567.400
625.285	1543.300
625.413	1556.458
625.541	1547.283
625.669	1560.650
625.797	1546.075
625.925	1562.683
626.053	1554.583
626.181	1569.783
626.310	1562.275
626.438	1562.000
626.566	1553.067
626.694	1567.008
626.822	1565.125
626.950	1565.283
627.078	1569.317
627.206	1558.942
627.335	1575.533
627.463	1585.850
627.591	1579.250
627.719	1577.925
627.847	1586.942
627.975	1577.258
628.103	1574.975
628.231	1593.575
628.360	1580.475
628.488	1587.067
628.616	1582.408
628.744	1584.117
628.872	1586.167
629.000	1584.175
629.128	1588.983
629.256	1602.617
629.385	1589.708
629.513	1588.175
629.641	1597.267
629.769	1580.308
629.897	1593.417
630.025	1602.717
630.153	1609.717
630.281	1607.175
630.410	1587.592
630.538	1617.125
630.666	1614.642
630.794	1605.233
630.922	1602.783
631.050	1598.067
631.178	1613.517
631.306	1604.933
631.435	1609.558
631.563	1616.783
631.691	1590.750
631.819	1614.625
631.947	1621.883
632.075	1606.433
632.203	1620.167
632.331	1626.167
632.460	1607.325
632.588	1629.150
632.716	1612.025
632.844	1615.233
632.972	1615.467
633.100	1634.308
633.228	1612.692
633.356	1611.908
633.485	1623.958
633.613	1635.642
633.741	1615.658
633.869	1621.325
633.997	1610.633
634.125	1617.633
634.253	1611.750
634.381	1606.783
634.510	1619.067
634.638	1605.567
634.766	1614.917
634.894	1609.483
635.022	1612.842
635.150	1607.142
635.278	1628.667
635.406	1619.042
635.535	1614.908
635.663	1625.517
635.791	1605.183
635.919	1623.800
636.047	1600.825
636.175	1605.333
636.303	1619.125
636.431	1615.450
636.560	1625.458
636.688	1617.425
636.816	1614.475
636.944	1601.150
637.072	1615.425
637.200	1608.408
637.328	1600.175
637.456	1609.292
637.585	1619.700
637.713	1606.583
637.841	1596.692
637.969	1597.850
638.097	1592.875
638.225	1626.133
638.353	1615.958
638.481	1606.600
638.610	1626.933
638.738	1607.217
638.866	1598.358
638.994	1608.600
639.122	1602.983
639.250	1614.992
639.378	1606.008
639.506	1592.658
639.635	1608.350
639.763	1584.817
639.891	1611.792
640.019	1613.042
640.147	1612.067
640.275	1596.442
640.403	1592.375
640.531	1597.225
640.660	1596.483
640.788	1600.583
640.916	1602.542
641.044	1614.367
641.172	1598.092
641.300	1608.350
641.428	1611.925
641.556	1614.058
641.685	1586.858
641.813	1583.508
641.941	1606.825
642.069	1603.200
642.197	1610.317
642.325	1593.867
642.453	1610.658
642.581	1614.033
642.710	1603.008
642.838	1607.000
642.966	1598.733
643.094	1595.733
643.222	1607.492
643.350	1585.242
643.478	1605.658
643.606	1602.683
643.735	1587.242
643.863	1589.442
643.991	1609.533
644.119	1603.000
644.247	1599.642
644.375	1602.917
644.503	1604.633
644.631	1603.700
644.760	1605.883
644.888	1605.750
645.016	1601.750
645.144	1615.033
645.272	1600.225
645.400	1605.967
645.528	1600.558
645.656	1588.842
645.785	1594.417
645.913	1596.958
646.041	1601.633
646.169	1577.308
646.297	1580.075
646.425	1582.867
646.553	1565.350
646.681	1576.333
646.810	1577.983
646.938	1582.017
647.066	1561.858
647.194	1574.592
647.322	1576.883
647.450	1565.567
647.578	1579.575
647.706	1554.283
647.835	1566.225
647.963	1551.942
648.091	1562.700
648.219	1544.842
648.347	1559.892
648.475	1551.850
648.603	1556.508
648.731	1549.192
648.860	1541.467
648.988	1540.792
649.116	1536.008
649.244	1524.558
649.372	1520.783
649.500	1509.500
649.628	1517.725
649.756	1513.800
649.885	1497.633
650.013	1493.675
650.141	1493.942
650.269	1486.983
650.397	1497.642
650.525	1484.383
650.653	1488.583
650.781	1471.475
650.910	1466.317
651.038	1457.333
651.166	1465.375
651.294	1446.050
651.422	1454.258
651.550	1444.400
651.678	1430.675
651.806	1426.767
651.935	1442.575
652.063	1421.975
652.191	1419.033
652.319	1426.833
652.447	1417.583
652.575	1408.083
652.703	1399.483
652.831	1396.367
652.960	1390.450
653.088	1389.633
653.216	1377.433
653.344	1370.575
653.472	1384.950
653.600	1371.692
653.728	1360.083
653.856	1359.708
653.985	1361.783
654.113	1349.458
654.241	1353.517
654.369	1345.100
654.497	1357.392
654.625	1346.050
654.753	1343.333
654.881	1335.133
655.010	1334.333
655.138	1331.050
655.266	1327.092
655.394	1309.250
655.522	1318.125
655.650	1293.550
655.778	1314.208
655.906	1313.317
656.035	1299.033
656.163	1294.675
656.291	1295.992
656.419	1290.533
656.547	1296.500
656.675	1276.242
656.803	1273.483
656.931	1276.775
657.060	1280.508
657.188	1271.800
657.316	1270.375
657.444	1273.867
657.572	1268.833
657.700	1255.150
657.828	1257.133
657.956	1256.183
658.085	1274.008
658.213	1242.475
658.341	1247.017
658.469	1241.517
658.597	1238.992
658.725	1246.167
658.853	1228.742
658.981	1225.317
659.110	1226.125
659.238	1230.417
659.366	1221.317
659.494	1204.058
659.622	1207.725
659.750	1213.642
659.878	1204.600
660.006	1196.225
660.135	1212.283
660.263	1192.625
660.391	1183.292
660.519	1191.150
660.647	1180.300
660.775	1176.867
660.903	1175.250
661.031	1166.358
661.160	1169.100
661.288	1170.800
661.416	1167.900
661.544	1151.508
661.672	1158.708
661.800	1158.392
661.928	1150.383
662.056	1141.200
662.185	1146.850
662.313	1141.242
662.441	1141.825
662.569	1135.492
662.697	1129.308
662.825	1132.508
662.953	1127.042
663.081	1122.492
663.210	1122.033
663.338	1132.175
663.466	1115.067
663.594	1104.500
663.722	1100.708
663.850	1100.675
663.978	1088.900
664.106	1095.458
664.235	1095.458
664.363	1099.817
664.491	1088.333
664.619	1088.967
664.747	1088.367
664.875	1074.567
665.003	1059.800
665.131	1073.675
665.260	1075.233
665.388	1058.500
665.516	1064.533
665.644	1047.708
665.772	1051.683
665.900	1050.658
666.028	1053.450
666.156	1046.608
666.285	1039.058
666.413	1048.600
666.541	1038.175
666.669	1031.933
666.797	1025.725
666.925	1017.067
667.053	1034.158
667.181	1020.858
667.310	1005.108
667.438	1012.900
667.566	1000.200
667.694	1009.858
667.822	1009.808
667.950	1002.608
668.078	996.117
668.206	997.692
668.335	987.925
668.463	996.200
668.591	978.433
668.719	976.342
668.847	970.425
668.975	972.083
669.103	980.942
669.231	970.250
669.360	965.392
669.488	968.608
669.616	957.933
669.744	955.283
669.872	944.658
670.000	957.950
670.128	943.000
670.256	936.250
670.385	939.908
670.513	943.733
670.641	928.117
670.769	926.883
670.897	924.017
671.025	925.700
671.153	918.850
671.281	932.008
671.410	921.708
671.538	911.925
671.666	912.758
671.794	920.133
671.922	904.742
672.050	894.683
672.178	902.650
672.306	891.592
672.435	897.175
672.563	889.217
672.691	879.950
672.819	883.000
672.947	881.117
673.075	872.342
673.203	864.850
673.331	861.717
673.460	864.333
673.588	856.608
673.716	861.608
673.844	853.133
673.972	859.325
674.100	851.725
674.228	843.250
674.356	839.867
674.485	834.158
674.613	827.367
674.741	826.758
674.869	828.583
674.997	815.558
675.125	814.825
675.253	813.067
675.381	806.467
675.510	810.550
675.638	805.375
675.766	803.567
675.894	790.542
676.022	794.500
676.150	793.533
676.278	792.100
676.406	781.875
676.535	782.750
676.663	784.000
676.791	766.092
676.919	757.325
677.047	771.908
677.175	759.933
677.303	760.767
677.431	754.983
677.560	743.700
677.688	743.717
677.816	740.467
677.944	742.733
678.072	732.000
678.200	738.517
678.328	722.900
678.456	725.933
678.585	722.042
678.713	725.967
678.841	719.883
678.969	706.275
679.097	710.767
679.225	713.208
679.353	706.200
679.481	692.392
679.610	707.467
679.738	692.350
679.866	696.958
679.994	684.775
680.122	695.225
680.250	682.675
680.378	679.108
680.506	670.958
680.635	676.567
680.763	677.067
680.891	670.050
681.019	671.275
681.147	663.708
681.275	655.208
681.403	656.442
681.531	659.517
681.660	648.892
681.788	646.567
681.916	640.583
682.044	649.417
682.172	633.958
682.300	636.967
682.428	638.608
682.556	631.925
682.685	637.925
682.813	634.950
682.941	621.325
683.069	625.967
683.197	625.767
683.325	617.008
683.453	615.008
683.581	610.117
683.710	610.600
683.838	606.375
683.966	609.250
684.094	604.025
684.222	611.925
684.350	595.475
684.478	598.808
684.606	597.383
684.735	592.983
684.863	595.367
684.991	581.858
685.119	588.058
685.247	585.500
685.375	584.467
685.503	586.233
685.631	580.408
685.760	576.550
685.888	577.400
686.016	574.117
686.144	569.258
686.272	565.825
686.400	570.892
686.528	563.842
686.656	566.575
686.785	555.233
686.913	562.800
687.041	559.725
687.169	557.658
687.297	555.258
687.425	551.725
687.553	550.058
687.681	546.867
687.810	547.975
687.938	541.758
688.066	544.433
688.194	542.400
688.322	536.558
688.450	537.233
688.578	543.133
688.706	536.892
688.835	529.358
688.963	534.842
689.091	530.958
689.219	526.667
689.347	515.850
689.475	526.942
689.603	515.267
689.731	524.108
689.860	515.283
689.988	515.200
690.116	517.200
690.244	518.100
690.372	508.917
690.500	511.758
690.628	509.225
690.756	500.217
690.885	507.533
691.013	501.308
691.141	497.167
691.269	498.642
691.397	503.242
691.525	495.875
691.653	494.600
691.781	493.417
691.910	492.183
692.038	487.200
692.166	486.725
692.294	487.867
692.422	482.642
692.550	486.067
692.678	482.167
692.806	478.808
692.935	478.800
693.063	474.175
693.191	474.325
693.319	473.375
693.447	472.333
693.575	467.783
693.703	466.783
693.831	464.875
693.960	460.817
694.088	465.483
694.216	461.783
694.344	456.400
694.472	464.058
694.600	452.483
694.728	457.200
694.856	449.142
694.985	448.908
695.113	444.908
695.241	444.450
695.369	445.350
695.497	443.125
695.625	441.533
695.753	439.408
695.881	432.367
696.010	431.192
696.138	433.567
696.266	427.958
696.394	426.908
696.522	427.275
696.650	425.925
696.778	422.225
696.906	427.592
697.035	421.550
697.163	410.050
697.291	418.817
697.419	410.133
697.547	410.458
697.675	415.317
697.803	409.300
697.931	404.283
698.060	407.017
698.188	405.450
698.316	409.683
698.444	403.925
698.572	395.967
698.700	400.442
698.828	395.133
698.956	391.767
699.085	393.142
699.213	390.300
699.341	386.833
699.469	387.458
699.597	393.958
699.725	387.908
699.853	384.133
699.981	385.150
700.110	378.658
700.238	379.333
700.366	375.692
700.494	378.367
700.622	373.883
700.750	372.792
700.878	370.775
701.006	367.325
701.135	368.567
701.263	368.350
701.391	367.008
701.519	369.658
701.647	360.950
701.775	365.450
701.903	360.150
702.031	356.450
702.160	358.675
702.288	358.600
702.416	353.925
702.544	353.767
702.672	352.692
702.800	350.842
702.928	354.058
703.056	352.575
703.185	350.092
703.313	346.033
703.441	345.033
703.569	340.250
703.697	347.508
703.825	342.208
703.953	343.767
704.081	339.042
704.210	335.208
704.338	338.525
704.466	331.142
704.594	333.450
704.722	332.050
704.850	332.725
704.978	331.958
705.106	332.783
705.235	325.475
705.363	326.842
705.491	324.900
705.619	326.042
705.747	325.642
705.875	321.767
706.003	322.133
706.131	320.817
706.260	316.567
706.388	315.550
706.516	316.492
706.644	315.783
706.772	312.408
706.900	309.700
707.028	315.067
707.156	309.250
707.285	310.892
707.413	306.725
707.541	301.058
707.669	304.058
707.797	302.133
707.925	304.300
708.053	304.667
708.181	301.517
708.310	295.592
708.438	300.733
708.566	297.458
708.694	295.600
708.822	295.650
708.950	292.025
709.078	287.492
709.206	289.217
709.335	288.783
709.463	288.867
709.591	287.992
709.719	286.050
709.847	284.550
709.975	285.375
710.103	281.933
710.231	279.758
710.360	280.667
710.488	275.800
710.616	277.592
710.744	274.833
710.872	274.925
711.000	273.092
711.128	271.692
711.256	270.708
711.385	274.242
711.513	273.708
711.641	269.592
711.769	268.817
711.897	267.200
712.025	265.017
712.153	265.117
712.281	265.617
712.410	270.942
712.538	259.542
712.666	263.808
712.794	258.300
712.922	262.342
713.050	260.175
713.178	260.325
713.306	260.192
713.435	257.250
713.563	255.975
713.691	257.158
713.819	257.675
713.947	249.358
714.075	252.433
714.203	255.583
714.331	253.975
714.460	248.858
714.588	249.767
714.716	249.675
714.844	248.600
714.972	243.900
715.100	247.942
715.228	247.642
715.356	245.517
715.485	245.717
715.613	242.333
715.741	243.675
715.869	244.875
715.997	240.575
716.125	239.008
716.253	239.325
716.381	238.975
716.510	238.925
716.638	239.058
716.766	234.275
716.894	233.458
717.022	235.200
717.150	235.092
717.278	233.717
717.406	234.775
717.535	234.758
717.663	233.058
717.791	232.033
717.919	231.442
718.047	230.767
718.175	230.217
718.303	233.125
718.431	225.350
718.560	226.858
718.688	225.192
718.816	225.967
718.944	225.183
719.072	222.775
719.200	222.125
719.328	222.983
719.456	222.817
719.585	227.333
719.713	224.125
719.841	220.942
719.969	220.617
720.097	219.242
720.225	220.700
720.353	216.642
720.481	220.033
720.610	217.392
720.738	216.542
720.866	214.250
720.994	217.275
721.122	216.183
721.250	215.508
721.378	211.383
721.506	214.258
721.635	215.042
721.763	214.650
721.891	213.333
722.019	210.092
722.147	211.367
722.275	208.525
722.403	210.500
722.531	207.958
722.660	207.392
722.788	209.367
722.916	205.817
723.044	204.758
723.172	204.058
723.300	205.967
723.428	207.067
723.556	206.258
723.685	205.975
723.813	205.608
723.941	203.150
724.069	204.000
724.197	201.742
724.325	199.950
724.453	201.358
724.581	203.358
724.710	198.900
724.838	199.567
724.966	197.492
725.094	198.692
725.222	194.450
725.350	194.525
725.478	198.617
725.606	195.267
725.735	193.683
725.863	197.425
725.991	191.783
726.119	194.592
726.247	191.942
726.375	191.800
726.503	192.717
726.631	191.350
726.760	190.142
726.888	188.592
727.016	185.808
727.144	192.692
727.272	186.383
727.400	184.308
727.528	184.908
727.656	187.192
727.785	187.458
727.913	185.425
728.041	184.117
728.169	184.783
728.297	182.483
728.425	182.292
728.553	181.150
728.681	179.375
728.810	180.550
728.938	182.100
729.066	181.833
729.194	180.375
729.322	181.292
729.450	179.925
729.578	179.725
729.706	176.192
729.835	177.383
729.963	176.467
730.091	178.067
730.219	175.217
730.347	178.125
730.475	174.433
730.603	176.067
730.731	176.358
730.860	173.008
730.988	172.733
731.116	175.292
731.244	173.250
731.372	174.458
731.500	169.458
731.628	171.933
731.756	170.400
731.885	171.083
732.013	168.517
732.141	170.608
732.269	170.583
732.397	168.983
732.525	167.200
732.653	168.092
732.781	168.900
732.910	166.667
733.038	166.642
733.166	167.608
733.294	167.558
733.422	166.067
733.550	164.358
733.678	164.825
733.806	167.125
733.935	165.200
734.063	163.842
734.191	165.408
734.319	163.642
734.447	161.683
734.575	163.675
734.703	161.683
734.831	162.233
734.960	165.367
735.088	160.642
735.216	162.267
735.344	161.642
735.472	162.833
735.600	161.108
735.728	158.517
735.856	159.133
735.985	159.550
736.113	158.492
736.241	159.425
736.369	159.233
736.497	158.650
736.625	158.850
736.753	158.400
736.881	158.017
737.010	156.942
737.138	159.050
737.266	155.725
737.394	154.500
737.522	156.217
737.650	155.400
737.778	154.075
737.906	154.658
738.035	152.825
738.163	153.925
738.291	153.867
738.419	154.533
738.547	153.792
738.675	152.425
738.803	152.225
738.931	152.417
739.060	152.433
739.188	153.642
739.316	151.242
739.444	151.958
739.572	151.392
739.700	152.967
739.828	152.217
739.956	151.208
740.085	150.283
740.213	149.575
740.341	148.458
740.469	148.783
740.597	148.950
740.725	151.767
740.853	147.892
740.981	146.733
741.110	148.258
741.238	148.858
741.366	148.550
741.494	146.308
741.622	146.175
741.750	146.725
741.878	148.200
742.006	146.775
742.135	147.175
742.263	146.442
742.391	142.892
742.519	145.742
742.647	146.500
742.775	147.658
742.903	145.208
743.031	143.725
743.160	144.492
743.288	144.542
743.416	144.208
743.544	141.117
743.672	143.675
743.800	145.842
743.928	142.792
744.056	142.650
744.185	143.992
744.313	143.575
744.441	142.425
744.569	144.100
744.697	141.425
744.825	141.133
744.953	142.758
745.081	141.167
745.210	141.567
745.338	139.542
745.466	141.808
745.594	141.808
745.722	140.658
745.850	139.525
745.978	141.567
746.106	139.458
746.235	139.867
746.363	140.742
746.491	139.617
746.619	137.758
746.747	139.050
746.875	141.042
747.003	137.817
747.131	138.717
747.260	140.300
747.388	137.958
747.516	138.092
747.644	136.450
747.772	137.708
747.900	136.950
748.028	137.117
748.156	136.558
748.285	137.617
748.413	135.000
748.541	134.017
748.669	135.800
748.797	135.133
748.925	133.383
749.053	136.567
749.181	134.225
749.310	133.292
749.438	134.683
749.566	135.125
749.694	135.867
749.822	135.183
749.950	132.758
750.078	134.733
750.206	135.408
750.335	134.308
750.463	132.275
750.591	133.058
750.719	133.975
750.847	130.758
750.975	131.092
751.103	131.250
751.231	130.975
751.360	133.992
751.488	132.192
751.616	132.033
751.744	130.342
751.872	131.017
752.000	132.267
752.128	130.767
752.256	131.825
752.385	130.333
752.513	128.908
752.641	127.925
752.769	130.267
752.897	129.425
753.025	128.750
753.153	129.458
753.281	129.208
753.410	128.917
753.538	127.458
753.666	127.575
753.794	129.375
753.922	128.450
754.050	128.583
754.178	127.758
754.306	127.808
754.435	126.875
754.563	127.550
754.691	127.508
754.819	126.650
754.947	126.900
755.075	128.158
755.203	128.592
755.331	126.508
755.460	126.375
755.588	127.292
755.716	126.367
755.844	125.517
755.972	125.542
756.100	125.792
756.228	124.292
756.356	124.967
756.485	124.875
756.613	126.283
756.741	123.842
756.869	125.142
756.997	127.442
757.125	123.717
757.253	125.650
757.381	123.858
757.510	124.300
757.638	124.992
757.766	125.442
757.894	123.100
758.022	125.308
758.150	122.725
758.278	124.517
758.406	124.508
758.535	124.525
758.663	123.383
758.791	123.533
758.919	123.817
759.047	123.175
759.175	122.783
759.303	123.458
759.431	121.858
759.560	122.242
759.688	124.283
759.816	123.267
759.944	124.292
760.072	121.817
760.200	122.100
760.328	121.917
760.456	122.483
760.585	121.583
760.713	121.517
760.841	122.000
760.969	123.208
761.097	122.033
761.225	121.250
761.353	121.108
761.481	120.558
761.610	122.983
761.738	121.992
761.866	121.750
761.994	119.917
762.122	120.633
762.250	121.258
762.378	120.000
762.506	121.092
762.635	120.950
762.763	120.550
762.891	120.425
763.019	119.692
763.147	118.925
763.275	120.200
763.403	119.850
763.531	119.000
763.660	119.925
763.788	119.650
763.916	119.750
764.044	119.783
764.172	121.650
764.300	120.408
764.428	119.300
764.556	119.175
764.685	119.083
764.813	119.842
764.941	118.350
765.069	119.083
765.197	120.367
765.325	117.575
765.453	118.917
765.581	118.125
765.710	118.108
765.838	117.758
765.966	118.150
766.094	117.675
766.222	119.142
766.350	118.358
766.478	118.667
766.606	117.867
766.735	118.000
766.863	117.700
766.991	119.025
767.119	118.425
767.247	115.408
767.375	116.892
767.503	117.600
767.631	117.858
767.760	117.267
767.888	117.075
768.016	117.075
768.144	115.867
768.272	117.408
768.400	118.458
768.528	116.450
768.656	114.700
768.785	117.283
768.913	116.600
769.041	115.858
769.169	115.708
769.297	115.433
769.425	114.383
769.553	115.800
769.681	115.025
769.810	117.483
769.938	115.017
770.066	115.492
770.194	114.950
770.322	116.000
770.450	114.817
770.578	115.750
770.706	115.842
770.835	115.592
770.963	116.242
771.091	114.542
771.219	116.358
771.347	114.925
771.475	115.058
771.603	114.617
771.731	116.292
771.860	116.142
771.988	116.408
772.116	115.458
772.244	114.233
772.372	115.342
772.500	114.883
772.628	115.142
772.756	114.525
772.885	114.617
773.013	115.158
773.141	114.050
773.269	112.842
773.397	115.200
773.525	114.100
773.653	113.508
773.781	113.767
773.910	112.567
774.038	113.400
774.166	114.458
774.294	114.833
774.422	112.908
774.550	116.017
774.678	113.475
774.806	113.500
774.935	114.350
775.063	112.842
775.191	116.108
775.319	114.792
775.447	113.492
775.575	113.617
775.703	113.867
775.831	113.250
775.960	114.200
776.088	112.875
776.216	112.900
776.344	113.083
776.472	113.592
776.600	113.725
776.728	111.975
776.856	112.508
776.985	113.158
777.113	113.433
777.241	113.417
777.369	113.583
777.497	111.367
777.625	112.550
777.753	111.400
777.881	111.817
778.010	111.992
778.138	111.133
778.266	110.608
778.394	112.125
778.522	113.167
778.650	110.842
778.778	111.242
778.906	112.633
779.035	112.033
779.163	110.925
779.291	110.742
779.419	112.108
779.547	111.608
779.675	111.975
779.803	111.600
779.931	110.925
780.060	111.267
780.188	111.150
780.316	110.725
780.444	112.292
780.572	111.342
780.700	111.608
780.828	110.833
780.956	112.825
781.085	111.692
781.213	110.983
781.341	111.158
781.469	110.833
781.597	111.792
781.725	111.425
781.853	110.858
781.981	109.483
782.110	111.450
782.238	110.658
782.366	110.742
782.494	109.858
782.622	111.508
782.750	112.508
782.878	112.167
783.006	110.592
783.135	110.675
783.263	110.550
783.391	110.358
783.519	110.242
783.647	110.850
783.775	109.433
783.903	111.125
784.031	110.442
784.160	109.042
784.288	111.625
784.416	109.900
784.544	109.592
784.672	109.967
784.800	111.075
784.928	108.975
785.056	108.083
785.185	109.983
785.313	109.083
785.441	109.850
785.569	110.083
785.697	109.442
785.825	109.325
785.953	109.158
786.081	109.750
786.210	109.000
786.338	108.592
786.466	109.358
786.594	107.933
786.722	108.550
786.850	109.792
786.978	108.933
787.106	109.683
787.235	109.817
787.363	109.642
787.491	108.833
787.619	109.567
787.747	108.800
787.875	109.217
788.003	108.583
788.131	107.458
788.260	109.342
788.388	109.542
788.516	108.100
788.644	108.667
788.772	107.467
788.900	109.325
789.028	108.308
789.156	109.508
789.285	108.792
789.413	107.958
789.541	108.700
789.669	107.633
789.797	107.833
789.925	108.092
790.053	109.375
790.181	108.325
790.310	107.658
790.438	107.850
790.566	109.350
790.694	108.633
790.822	108.250
790.950	109.017
791.078	108.783
791.206	107.325
791.335	108.233
791.463	107.058
791.591	108.258
791.719	108.483
791.847	107.567
791.975	108.033
792.103	107.658
792.231	109.017
792.360	107.275
792.488	106.833
792.616	107.800
792.744	107.567
792.872	107.633
793.000	107.217
793.128	107.058
793.256	108.083
793.385	107.367
793.513	108.508
793.641	107.933
793.769	106.567
793.897	107.808
794.025	108.675
794.153	108.250
794.281	107.617
794.410	106.367
794.538	107.058
794.666	107.850
794.794	107.808
794.922	107.667
795.050	106.350
795.178	107.642
795.306	105.683
795.435	106.708
795.563	106.800
795.691	106.308
795.819	107.008
795.947	107.242
796.075	107.633
796.203	107.692
796.331	107.075
796.460	107.525
796.588	106.750
796.716	106.617
796.844	106.533
796.972	108.875
797.100	105.158
797.228	107.717
797.356	108.158
797.485	106.375
797.613	107.675
797.741	106.875
797.869	107.008
797.997	107.075
798.125	106.000
798.253	106.983
798.381	107.517
798.510	106.908
798.638	106.300
798.766	105.917
798.894	105.017
799.022	105.800
799.150	105.708
799.278	106.233
799.406	107.208
799.535	107.417
799.663	107.650
799.791	105.733
799.919	106.525
800.047	106.742
800.175	107.675
800.303	107.200
800.431	106.158
800.560	105.800
800.688	106.550
800.816	106.467
800.944	106.417
801.072	107.150
801.200	106.467
801.328	105.617
801.456	106.750
801.585	107.183
801.713	105.925
801.841	106.875
801.969	106.142
802.097	106.350
802.225	106.867
802.353	105.917
802.481	106.175
802.610	106.808
802.738	105.992
802.866	106.342
802.994	105.975
803.122	106.267
803.250	106.933
803.378	106.183
803.506	106.733
803.635	106.433
803.763	105.767
803.891	106.458
804.019	106.442
804.147	106.400
804.275	106.133
804.403	105.950
804.531	105.583
804.660	106.233
804.788	105.725
804.916	104.867
805.044	105.592
805.172	106.942
805.300	105.225
805.428	105.958
805.556	105.842
805.685	106.808
805.813	107.058
805.941	104.925
806.069	106.733
806.197	106.858
806.325	105.600
806.453	106.558
806.581	106.325
806.710	104.692
806.838	104.808
806.966	106.458
807.094	105.667
807.222	105.550
807.350	105.617
807.478	105.717
807.606	104.525
807.735	105.942
807.863	106.025
807.991	105.042
808.119	106.175
808.247	104.575
808.375	105.833
808.503	104.683
808.631	105.925
808.760	105.767
808.888	105.083
809.016	105.900
809.144	106.208
809.272	106.200
809.400	106.025
809.528	105.833
809.656	104.542
809.785	104.908
809.913	105.158
810.041	105.517
810.169	105.158
810.297	105.042
810.425	104.992
810.553	104.633
810.681	105.717
810.810	105.933
810.938	106.300
811.066	103.858
811.194	104.592
811.322	105.308
811.450	105.658
811.578	105.142
811.706	105.208
811.835	105.600
811.963	105.425
812.091	105.867
812.219	105.858
812.347	104.917
812.475	105.683
812.603	105.308
812.731	103.783
812.860	105.133
812.988	106.075
813.116	104.908
813.244	105.742
813.372	105.858
813.500	105.325
813.628	105.325
813.756	103.242
813.885	105.417
814.013	104.067
814.141	105.858
814.269	105.158
814.397	105.942
814.525	104.742
814.653	104.975
814.781	104.483
814.910	105.217
815.038	105.175
815.166	105.758
815.294	105.017
815.422	105.942
815.550	104.833
815.678	104.183
815.806	104.792
815.935	104.675
816.063	103.958
816.191	103.842
816.319	105.125
816.447	105.167
816.575	105.183
816.703	104.683
816.831	105.450
816.960	105.683
817.088	104.883
817.216	105.508
817.344	105.450
817.472	105.842
817.600	104.758
817.728	104.317
817.856	105.158
817.985	104.242
818.113	105.467
818.241	104.683
818.369	104.633
818.497	106.067
818.625	104.475
818.753	103.758
818.881	105.525
819.010	104.392
819.138	104.492
819.266	104.992
819.394	104.300
819.522	103.692
819.650	105.608
819.778	104.383
819.906	104.792
820.035	105.242
820.163	105.092
820.291	104.333
820.419	104.517
820.547	105.525
820.675	103.408
820.803	104.392
820.931	105.117
821.060	103.050
821.188	105.700
821.316	103.992
821.444	104.817
821.572	104.725
821.700	104.142
821.828	104.992
821.956	105.400
822.085	104.458
822.213	105.392
822.341	104.958
822.469	103.342
822.597	104.650
822.725	104.250
822.853	104.550
822.981	104.325
823.110	105.550
823.238	103.442
823.366	105.108
823.494	103.183
823.622	103.675
823.750	105.092
823.878	102.858
824.006	104.667
824.135	104.617
824.263	105.192
824.391	103.883
824.519	105.017
824.647	104.592
824.775	105.167
824.903	104.783
825.031	105.208
825.160	105.342
825.288	105.083
825.416	105.108
825.544	104.575
825.672	105.400
825.800	104.475
825.928	105.225
826.056	104.842
826.185	104.150
826.313	104.667
826.441	104.342
826.569	104.283
826.697	104.525
826.825	104.250
826.953	104.967
827.081	103.083
827.210	104.075
827.338	103.792
827.466	104.017
827.594	103.975
827.722	105.183
827.850	104.042
827.978	103.575
828.106	104.208
828.235	105.483
828.363	104.383
828.491	104.667
828.619	103.533
828.747	104.375
828.875	105.017
829.003	104.408
829.131	104.892
829.260	105.425
829.388	104.242
829.516	105.067
829.644	104.533
829.772	105.025
829.900	104.592
830.028	104.917
830.156	104.458
830.285	104.325
830.413	104.683
830.541	104.600
830.669	104.292
830.797	103.975
830.925	103.942
831.053	103.917
831.181	103.967
831.310	105.525
831.438	104.400
831.566	104.550
831.694	103.558
831.822	103.375
831.950	104.675
832.078	104.575
832.206	104.317
832.335	103.958
832.463	104.842
832.591	104.392
832.719	103.783
832.847	104.625
832.975	103.558
833.103	104.133
833.231	103.800
833.360	104.175
833.488	104.417
833.616	103.633
833.744	102.983
833.872	104.575
834.000	105.250
834.128	104.608
834.256	103.742
834.385	104.058
834.513	104.733
834.641	103.575
834.769	103.142
834.897	104.517
835.025	103.525
835.153	102.833
835.281	104.267
835.410	103.750
835.538	104.017
835.666	103.808
835.794	103.183
835.922	103.908
836.050	103.275
836.178	104.308
836.306	103.692
836.435	103.617
836.563	103.550
836.691	104.792
836.819	104.525
836.947	103.350
837.075	103.758
837.203	102.925
837.331	104.608
837.460	104.108
837.588	103.267
837.716	103.975
837.844	104.258
837.972	103.975
838.100	103.900
838.228	102.842
838.356	102.658
838.485	101.992
838.613	103.183
838.741	103.958
838.869	103.683
838.997	103.958
839.125	102.242
839.253	103.042
839.381	104.025
839.510	103.183
839.638	103.242
839.766	102.600
839.894	104.067
840.022	104.358
840.150	103.867
840.278	103.358
840.406	103.717
840.535	104.525
840.663	102.892
840.791	103.067
840.919	103.750
841.047	103.500
841.175	103.708
841.303	103.600
841.431	103.833
841.560	103.825
841.688	104.133
841.816	103.008
841.944	103.683
842.072	103.925
842.200	103.767
842.328	104.233
842.456	103.292
842.585	103.925
842.713	104.192
842.841	103.333
842.969	103.642
843.097	103.908
843.225	103.567
843.353	103.192
843.481	103.125
843.610	103.033
843.738	103.342
843.866	103.108
