90-90-unpol_at_679.99nm_cut_at_1250.00Y_01.dat
24.01.2024
13:28:36
cut middle at Y: 1250.00
top cursor: 1310 down cursor: 1190 mean of: 120 lines , 2560 datapoints
wavelength(nm)	intensity[arb. units]
515.994	680.100
516.122	643.042
516.250	627.092
516.378	630.542
516.506	633.025
516.635	633.750
516.763	639.975
516.891	639.667
517.019	648.092
517.147	641.600
517.275	640.800
517.403	649.042
517.531	641.992
517.660	637.700
517.788	645.358
517.916	652.208
518.044	643.592
518.172	649.642
518.300	648.708
518.428	643.342
518.556	652.917
518.685	652.350
518.813	656.992
518.941	662.842
519.069	660.883
519.197	653.408
519.325	658.075
519.453	652.617
519.581	665.508
519.710	659.317
519.838	663.683
519.966	659.867
520.094	664.025
520.222	667.767
520.350	668.600
520.478	678.458
520.606	678.675
520.735	675.008
520.863	676.558
520.991	686.550
521.119	677.567
521.247	687.600
521.375	683.517
521.503	696.142
521.631	687.425
521.760	687.833
521.888	695.633
522.016	703.192
522.144	696.325
522.272	702.650
522.400	711.058
522.528	710.842
522.656	703.325
522.785	711.008
522.913	712.458
523.041	713.067
523.169	712.025
523.297	705.358
523.425	716.517
523.553	713.242
523.681	718.750
523.810	722.958
523.938	720.633
524.066	721.575
524.194	720.308
524.322	720.933
524.450	723.533
524.578	719.250
524.706	730.883
524.835	718.550
524.963	723.875
525.091	718.758
525.219	728.208
525.347	719.308
525.475	727.125
525.603	728.317
525.731	728.717
525.860	729.233
525.988	716.417
526.116	718.767
526.244	725.883
526.372	721.242
526.500	726.208
526.628	739.517
526.756	724.133
526.885	722.183
527.013	727.617
527.141	735.733
527.269	730.533
527.397	739.742
527.525	736.625
527.653	731.658
527.781	727.983
527.910	741.175
528.038	732.467
528.166	740.267
528.294	741.842
528.422	735.633
528.550	745.208
528.678	739.608
528.806	751.675
528.935	748.183
529.063	751.283
529.191	748.300
529.319	758.600
529.447	755.258
529.575	757.800
529.703	762.017
529.831	766.642
529.960	765.708
530.088	758.808
530.216	766.392
530.344	759.983
530.472	770.900
530.600	764.300
530.728	766.083
530.856	773.808
530.985	776.508
531.113	768.075
531.241	777.517
531.369	769.575
531.497	774.033
531.625	770.208
531.753	767.000
531.881	780.967
532.010	774.200
532.138	773.192
532.266	775.367
532.394	768.808
532.522	764.317
532.650	773.792
532.778	777.775
532.906	769.708
533.035	779.875
533.163	772.600
533.291	770.208
533.419	766.575
533.547	775.675
533.675	769.167
533.803	775.817
533.931	778.083
534.060	776.250
534.188	775.558
534.316	775.850
534.444	769.150
534.572	779.217
534.700	775.725
534.828	778.117
534.956	779.408
535.085	780.908
535.213	783.208
535.341	788.625
535.469	785.150
535.597	788.467
535.725	784.650
535.853	797.683
535.981	789.917
536.110	797.475
536.238	802.142
536.366	807.575
536.494	789.875
536.622	802.500
536.750	810.233
536.878	810.500
537.006	810.692
537.135	816.383
537.263	815.383
537.391	822.767
537.519	817.008
537.647	822.283
537.775	820.450
537.903	828.708
538.031	824.500
538.160	831.367
538.288	831.533
538.416	831.508
538.544	834.233
538.672	831.975
538.800	836.733
538.928	835.600
539.056	841.467
539.185	844.208
539.313	833.450
539.441	839.975
539.569	845.058
539.697	842.550
539.825	848.692
539.953	841.292
540.081	832.308
540.210	843.450
540.338	847.917
540.466	856.967
540.594	848.208
540.722	839.642
540.850	845.050
540.978	851.567
541.106	856.975
541.235	851.433
541.363	845.208
541.491	853.708
541.619	848.683
541.747	843.242
541.875	850.658
542.003	847.850
542.131	856.200
542.260	850.542
542.388	850.867
542.516	851.125
542.644	857.617
542.772	858.692
542.900	853.767
543.028	859.858
543.156	870.892
543.285	860.433
543.413	854.742
543.541	864.092
543.669	864.983
543.797	869.242
543.925	857.742
544.053	875.808
544.181	861.633
544.310	866.092
544.438	864.392
544.566	862.250
544.694	873.492
544.822	876.067
544.950	874.117
545.078	864.658
545.206	865.100
545.335	869.825
545.463	865.100
545.591	868.975
545.719	875.875
545.847	870.900
545.975	878.117
546.103	878.142
546.231	872.525
546.360	881.075
546.488	876.317
546.616	882.975
546.744	879.958
546.872	880.383
547.000	883.967
547.128	880.225
547.256	879.925
547.385	882.425
547.513	881.258
547.641	884.392
547.769	893.675
547.897	890.875
548.025	884.208
548.153	893.650
548.281	883.742
548.410	879.508
548.538	888.608
548.666	893.008
548.794	887.017
548.922	892.600
549.050	896.600
549.178	889.700
549.306	896.450
549.435	908.175
549.563	905.075
549.691	891.125
549.819	905.208
549.947	903.950
550.075	899.208
550.203	896.033
550.331	895.792
550.460	897.433
550.588	898.475
550.716	914.733
550.844	892.242
550.972	899.792
551.100	906.525
551.228	905.042
551.356	893.300
551.485	898.508
551.613	902.000
551.741	892.975
551.869	889.950
551.997	892.850
552.125	891.242
552.253	895.100
552.381	880.958
552.510	883.892
552.638	884.542
552.766	887.408
552.894	882.617
553.022	883.675
553.150	873.783
553.278	881.550
553.406	883.025
553.535	876.167
553.663	876.292
553.791	881.450
553.919	881.592
554.047	882.283
554.175	884.758
554.303	879.750
554.431	879.167
554.560	880.050
554.688	880.917
554.816	879.617
554.944	885.008
555.072	879.250
555.200	889.767
555.328	883.533
555.456	894.767
555.585	883.575
555.713	888.300
555.841	895.917
555.969	886.442
556.097	889.958
556.225	879.908
556.353	895.300
556.481	886.733
556.610	892.350
556.738	900.342
556.866	896.550
556.994	899.333
557.122	895.658
557.250	894.542
557.378	907.867
557.506	905.083
557.635	902.850
557.763	904.542
557.891	903.100
558.019	899.992
558.147	912.892
558.275	910.458
558.403	918.883
558.531	911.900
558.660	914.783
558.788	911.433
558.916	911.392
559.044	914.742
559.172	918.425
559.300	920.808
559.428	914.650
559.556	916.925
559.685	925.142
559.813	908.808
559.941	922.125
560.069	929.192
560.197	919.433
560.325	924.167
560.453	915.492
560.581	920.108
560.710	925.342
560.838	918.108
560.966	922.850
561.094	929.267
561.222	921.967
561.350	914.883
561.478	910.067
561.606	924.442
561.735	921.758
561.863	923.858
561.991	909.733
562.119	901.750
562.247	916.642
562.375	914.408
562.503	917.317
562.631	921.292
562.760	918.775
562.888	923.767
563.016	924.875
563.144	916.167
563.272	913.142
563.400	912.400
563.528	919.725
563.656	916.833
563.785	921.458
563.913	912.358
564.041	910.467
564.169	916.683
564.297	914.058
564.425	914.125
564.553	922.817
564.681	919.658
564.810	920.508
564.938	925.958
565.066	911.583
565.194	929.217
565.322	915.342
565.450	919.700
565.578	930.192
565.706	917.208
565.835	934.783
565.963	921.233
566.091	924.208
566.219	936.883
566.347	933.275
566.475	923.092
566.603	933.925
566.731	937.683
566.860	934.258
566.988	935.200
567.116	942.950
567.244	947.367
567.372	945.542
567.500	949.750
567.628	945.500
567.756	951.858
567.885	959.608
568.013	953.983
568.141	951.442
568.269	953.333
568.397	950.733
568.525	952.033
568.653	967.617
568.781	964.617
568.910	973.383
569.038	970.142
569.166	966.725
569.294	971.458
569.422	972.317
569.550	975.700
569.678	976.267
569.806	976.942
569.935	976.025
570.063	988.308
570.191	986.458
570.319	987.825
570.447	993.125
570.575	988.950
570.703	992.825
570.831	991.625
570.960	993.450
571.088	993.725
571.216	997.983
571.344	992.567
571.472	996.925
571.600	1003.308
571.728	998.992
571.856	1000.142
571.985	1000.467
572.113	1009.692
572.241	1003.675
572.369	1005.183
572.497	1016.708
572.625	1017.367
572.753	1001.692
572.881	1022.742
573.010	1016.333
573.138	1027.742
573.266	1023.717
573.394	1026.592
573.522	1026.125
573.650	1026.242
573.778	1020.975
573.906	1020.358
574.035	1028.908
574.163	1030.542
574.291	1025.283
574.419	1033.975
574.547	1042.342
574.675	1028.625
574.803	1032.917
574.931	1029.158
575.060	1039.000
575.188	1032.950
575.316	1035.283
575.444	1038.508
575.572	1046.092
575.700	1025.733
575.828	1041.417
575.956	1044.008
576.085	1035.917
576.213	1044.500
576.341	1034.767
576.469	1043.450
576.597	1037.583
576.725	1037.625
576.853	1034.308
576.981	1037.383
577.110	1034.917
577.238	1059.192
577.366	1037.750
577.494	1039.142
577.622	1036.858
577.750	1044.667
577.878	1036.783
578.006	1044.925
578.135	1040.933
578.263	1035.767
578.391	1052.583
578.519	1044.150
578.647	1054.458
578.775	1041.383
578.903	1049.050
579.031	1047.817
579.160	1044.875
579.288	1048.267
579.416	1043.100
579.544	1049.967
579.672	1050.008
579.800	1050.850
579.928	1049.133
580.056	1042.275
580.185	1053.667
580.313	1050.433
580.441	1053.642
580.569	1047.925
580.697	1046.800
580.825	1057.975
580.953	1057.925
581.081	1053.725
581.210	1060.608
581.338	1071.358
581.466	1071.533
581.594	1077.533
581.722	1061.708
581.850	1064.517
581.978	1074.042
582.106	1076.733
582.235	1089.783
582.363	1072.100
582.491	1077.633
582.619	1084.008
582.747	1090.858
582.875	1092.208
583.003	1099.842
583.131	1098.325
583.260	1095.208
583.388	1098.425
583.516	1106.425
583.644	1112.533
583.772	1113.267
583.900	1126.450
584.028	1121.283
584.156	1122.942
584.285	1131.983
584.413	1131.000
584.541	1127.500
584.669	1138.450
584.797	1129.800
584.925	1134.117
585.053	1152.092
585.181	1147.392
585.310	1158.458
585.438	1161.667
585.566	1157.708
585.694	1171.058
585.822	1179.725
585.950	1170.933
586.078	1170.425
586.206	1189.592
586.335	1188.292
586.463	1182.242
586.591	1188.500
586.719	1177.242
586.847	1182.983
586.975	1191.867
587.103	1198.058
587.231	1194.750
587.360	1202.917
587.488	1209.058
587.616	1197.500
587.744	1215.075
587.872	1210.558
588.000	1200.283
588.128	1220.733
588.256	1210.700
588.385	1202.067
588.513	1212.417
588.641	1211.792
588.769	1233.233
588.897	1219.442
589.025	1213.000
589.153	1224.825
589.281	1218.917
589.410	1223.933
589.538	1212.742
589.666	1228.075
589.794	1225.850
589.922	1237.467
590.050	1246.350
590.178	1230.492
590.306	1231.717
590.435	1236.058
590.563	1237.108
590.691	1240.900
590.819	1226.758
590.947	1262.283
591.075	1233.583
591.203	1236.275
591.331	1258.783
591.460	1253.675
591.588	1250.983
591.716	1254.258
591.844	1254.083
591.972	1265.117
592.100	1256.983
592.228	1262.675
592.356	1272.992
592.485	1259.625
592.613	1269.017
592.741	1270.658
592.869	1277.675
592.997	1277.783
593.125	1292.900
593.253	1288.375
593.381	1276.800
593.510	1289.267
593.638	1283.000
593.766	1295.008
593.894	1291.083
594.022	1291.683
594.150	1300.467
594.278	1315.417
594.406	1294.392
594.535	1295.617
594.663	1321.958
594.791	1318.517
594.919	1316.100
595.047	1325.025
595.175	1315.200
595.303	1329.825
595.431	1328.017
595.560	1341.425
595.688	1330.608
595.816	1322.617
595.944	1345.383
596.072	1354.308
596.200	1356.808
596.328	1347.017
596.456	1358.792
596.585	1363.450
596.713	1371.350
596.841	1363.142
596.969	1367.408
597.097	1371.908
597.225	1381.175
597.353	1387.917
597.481	1387.975
597.610	1388.392
597.738	1392.050
597.866	1383.425
597.994	1394.992
598.122	1410.250
598.250	1398.192
598.378	1396.783
598.506	1402.733
598.635	1400.158
598.763	1414.008
598.891	1416.900
599.019	1418.258
599.147	1410.275
599.275	1428.842
599.403	1415.358
599.531	1436.992
599.660	1428.525
599.788	1437.217
599.916	1437.433
600.044	1433.425
600.172	1444.558
600.300	1452.350
600.428	1446.642
600.556	1455.992
600.685	1459.400
600.813	1467.758
600.941	1477.758
601.069	1474.883
601.197	1486.858
601.325	1481.242
601.453	1477.967
601.581	1496.050
601.710	1490.292
601.838	1497.358
601.966	1492.100
602.094	1498.783
602.222	1498.717
602.350	1499.150
602.478	1511.708
602.606	1531.558
602.735	1517.933
602.863	1545.408
602.991	1537.967
603.119	1552.350
603.247	1543.475
603.375	1552.917
603.503	1554.800
603.631	1560.175
603.760	1569.592
603.888	1578.508
604.016	1570.350
604.144	1588.025
604.272	1574.467
604.400	1584.842
604.528	1579.908
604.656	1598.350
604.785	1608.708
604.913	1596.008
605.041	1613.767
605.169	1616.092
605.297	1614.450
605.425	1630.358
605.553	1641.350
605.681	1620.392
605.810	1633.025
605.938	1641.233
606.066	1640.392
606.194	1657.175
606.322	1638.642
606.450	1670.217
606.578	1672.317
606.706	1669.950
606.835	1667.200
606.963	1675.883
607.091	1672.167
607.219	1679.500
607.347	1667.642
607.475	1688.217
607.603	1692.550
607.731	1686.908
607.860	1688.650
607.988	1691.917
608.116	1690.425
608.244	1693.350
608.372	1699.425
608.500	1712.367
608.628	1698.542
608.756	1707.417
608.885	1726.233
609.013	1718.300
609.141	1721.183
609.269	1724.592
609.397	1721.967
609.525	1729.258
609.653	1729.492
609.781	1737.600
609.910	1721.317
610.038	1736.867
610.166	1737.233
610.294	1742.308
610.422	1737.500
610.550	1742.767
610.678	1743.567
610.806	1755.733
610.935	1755.283
611.063	1757.592
611.191	1768.642
611.319	1750.267
611.447	1751.200
611.575	1752.925
611.703	1751.908
611.831	1764.425
611.960	1766.842
612.088	1769.692
612.216	1778.175
612.344	1785.658
612.472	1764.583
612.600	1787.825
612.728	1776.175
612.856	1780.917
612.985	1784.058
613.113	1794.267
613.241	1804.783
613.369	1801.250
613.497	1816.217
613.625	1813.883
613.753	1816.733
613.881	1810.600
614.010	1819.467
614.138	1816.983
614.266	1818.175
614.394	1815.592
614.522	1817.133
614.650	1865.608
614.778	1829.783
614.906	1853.567
615.035	1844.558
615.163	1835.233
615.291	1847.042
615.419	1857.183
615.547	1845.108
615.675	1864.875
615.803	1860.533
615.931	1886.858
616.060	1889.442
616.188	1882.517
616.316	1877.667
616.444	1888.608
616.572	1893.242
616.700	1898.983
616.828	1914.167
616.956	1934.525
617.085	1932.908
617.213	1927.708
617.341	1910.175
617.469	1932.658
617.597	1935.908
617.725	1952.933
617.853	1944.892
617.981	1961.583
618.110	1974.850
618.238	1973.033
618.366	1981.867
618.494	1988.942
618.622	1980.700
618.750	1991.333
618.878	1994.733
619.006	2005.025
619.135	2031.875
619.263	2021.333
619.391	2017.575
619.519	2038.633
619.647	2054.308
619.775	2053.650
619.903	2050.400
620.031	2063.342
620.160	2060.192
620.288	2073.000
620.416	2082.625
620.544	2095.258
620.672	2093.117
620.800	2093.017
620.928	2121.925
621.056	2129.708
621.185	2130.875
621.313	2125.683
621.441	2141.508
621.569	2158.792
621.697	2150.092
621.825	2169.850
621.953	2167.950
622.081	2196.125
622.210	2181.800
622.338	2189.417
622.466	2194.508
622.594	2204.008
622.722	2208.692
622.850	2236.075
622.978	2237.942
623.106	2240.067
623.235	2238.117
623.363	2234.325
623.491	2243.200
623.619	2257.175
623.747	2262.417
623.875	2274.275
624.003	2269.067
624.131	2276.658
624.260	2265.825
624.388	2297.417
624.516	2300.142
624.644	2295.633
624.772	2307.883
624.900	2301.183
625.028	2285.575
625.156	2331.000
625.285	2322.283
625.413	2337.067
625.541	2327.800
625.669	2339.858
625.797	2350.450
625.925	2344.942
626.053	2344.900
626.181	2358.308
626.310	2386.675
626.438	2364.267
626.566	2356.433
626.694	2369.000
626.822	2381.600
626.950	2402.692
627.078	2387.208
627.206	2401.308
627.335	2400.658
627.463	2402.467
627.591	2420.008
627.719	2424.442
627.847	2429.075
627.975	2428.500
628.103	2436.058
628.231	2433.075
628.360	2438.233
628.488	2445.842
628.616	2451.758
628.744	2451.450
628.872	2453.192
629.000	2473.583
629.128	2477.725
629.256	2483.308
629.385	2482.150
629.513	2479.017
629.641	2497.033
629.769	2501.058
629.897	2506.200
630.025	2501.958
630.153	2535.325
630.281	2517.225
630.410	2529.358
630.538	2539.850
630.666	2534.725
630.794	2544.233
630.922	2551.975
631.050	2533.642
631.178	2557.767
631.306	2557.317
631.435	2576.383
631.563	2585.217
631.691	2585.575
631.819	2627.100
631.947	2590.125
632.075	2577.800
632.203	2619.042
632.331	2596.908
632.460	2600.892
632.588	2628.942
632.716	2617.758
632.844	2645.483
632.972	2617.983
633.100	2622.725
633.228	2641.725
633.356	2625.183
633.485	2642.767
633.613	2668.508
633.741	2673.642
633.869	2670.675
633.997	2664.292
634.125	2714.000
634.253	2684.858
634.381	2691.450
634.510	2699.958
634.638	2702.208
634.766	2761.700
634.894	2699.808
635.022	2706.650
635.150	2705.892
635.278	2732.742
635.406	2717.717
635.535	2728.925
635.663	2767.750
635.791	2685.250
635.919	2744.375
636.047	2745.267
636.175	2736.358
636.303	2748.800
636.431	2770.692
636.560	2782.025
636.688	2753.217
636.816	2779.133
636.944	2771.225
637.072	2807.300
637.200	2772.367
637.328	2817.058
637.456	2786.983
637.585	2797.333
637.713	2830.458
637.841	2813.883
637.969	2822.700
638.097	2831.492
638.225	2830.175
638.353	2834.592
638.481	2831.200
638.610	2855.992
638.738	2861.750
638.866	2851.700
638.994	2874.475
639.122	2875.683
639.250	2872.192
639.378	2918.308
639.506	2911.442
639.635	2926.358
639.763	2888.158
639.891	2912.592
640.019	2921.033
640.147	2977.192
640.275	2933.608
640.403	2929.633
640.531	2992.158
640.660	2944.117
640.788	3039.858
640.916	2997.367
641.044	2993.075
641.172	2994.858
641.300	2988.408
641.428	3009.875
641.556	3023.383
641.685	3040.783
641.813	3021.400
641.941	3033.617
642.069	3055.008
642.197	3093.300
642.325	3085.258
642.453	3067.408
642.581	3153.358
642.710	3052.800
642.838	3106.108
642.966	3093.475
643.094	3119.192
643.222	3108.333
643.350	3138.442
643.478	3152.117
643.606	3142.775
643.735	3098.517
643.863	3157.358
643.991	3172.325
644.119	3178.033
644.247	3185.142
644.375	3157.475
644.503	3200.958
644.631	3218.825
644.760	3223.642
644.888	3225.075
645.016	3242.358
645.144	3239.342
645.272	3205.850
645.400	3285.617
645.528	3259.650
645.656	3252.583
645.785	3268.308
645.913	3331.458
646.041	3293.008
646.169	3338.192
646.297	3266.700
646.425	3317.500
646.553	3293.592
646.681	3282.475
646.810	3319.600
646.938	3287.375
647.066	3289.275
647.194	3376.975
647.322	3312.292
647.450	3314.608
647.578	3335.575
647.706	3332.792
647.835	3325.067
647.963	3386.725
648.091	3342.175
648.219	3387.242
648.347	3383.583
648.475	3355.633
648.603	3370.858
648.731	3358.492
648.860	3367.433
648.988	3339.542
649.116	3359.858
649.244	3347.383
649.372	3381.650
649.500	3382.250
649.628	3422.375
649.756	3393.033
649.885	3353.025
650.013	3370.692
650.141	3361.742
650.269	3351.992
650.397	3356.167
650.525	3344.750
650.653	3404.233
650.781	3381.592
650.910	3371.975
651.038	3314.808
651.166	3349.092
651.294	3355.692
651.422	3334.392
651.550	3309.675
651.678	3349.767
651.806	3330.542
651.935	3360.275
652.063	3370.225
652.191	3348.900
652.319	3333.083
652.447	3344.900
652.575	3350.775
652.703	3352.992
652.831	3368.958
652.960	3345.067
653.088	3365.167
653.216	3351.292
653.344	3368.758
653.472	3343.200
653.600	3341.400
653.728	3330.642
653.856	3341.008
653.985	3339.350
654.113	3335.742
654.241	3348.975
654.369	3355.458
654.497	3389.375
654.625	3370.333
654.753	3350.833
654.881	3379.142
655.010	3431.692
655.138	3356.042
655.266	3359.708
655.394	3372.067
655.522	3410.392
655.650	3359.758
655.778	3439.267
655.906	3360.525
656.035	3344.625
656.163	3370.700
656.291	3376.817
656.419	3397.442
656.547	3386.833
656.675	3413.308
656.803	3390.442
656.931	3386.617
657.060	3394.633
657.188	3395.842
657.316	3408.600
657.444	3401.608
657.572	3405.842
657.700	3394.658
657.828	3390.950
657.956	3438.150
658.085	3478.575
658.213	3461.600
658.341	3465.475
658.469	3445.725
658.597	3501.950
658.725	3442.967
658.853	3432.125
658.981	3421.483
659.110	3475.475
659.238	3478.475
659.366	3444.217
659.494	3448.225
659.622	3443.358
659.750	3435.875
659.878	3419.558
660.006	3448.175
660.135	3437.592
660.263	3443.717
660.391	3545.150
660.519	3516.658
660.647	3447.633
660.775	3470.292
660.903	3429.400
661.031	3448.175
661.160	3477.633
661.288	3493.092
661.416	3470.308
661.544	3466.575
661.672	3467.283
661.800	3448.467
661.928	3476.525
662.056	3535.925
662.185	3433.608
662.313	3476.733
662.441	3547.275
662.569	3481.883
662.697	3458.175
662.825	3465.575
662.953	3441.217
663.081	3466.433
663.210	3458.733
663.338	3445.508
663.466	3448.242
663.594	3474.650
663.722	3452.892
663.850	3486.275
663.978	3446.300
664.106	3521.758
664.235	3466.117
664.363	3485.367
664.491	3492.967
664.619	3464.442
664.747	3471.342
664.875	3473.942
665.003	3486.525
665.131	3452.717
665.260	3504.692
665.388	3455.417
665.516	3433.083
665.644	3486.658
665.772	3485.342
665.900	3476.742
666.028	3452.708
666.156	3478.517
666.285	3478.925
666.413	3482.308
666.541	3488.800
666.669	3458.242
666.797	3444.833
666.925	3456.675
667.053	3526.450
667.181	3435.517
667.310	3482.033
667.438	3464.017
667.566	3472.525
667.694	3500.125
667.822	3484.208
667.950	3449.383
668.078	3437.992
668.206	3473.317
668.335	3433.917
668.463	3471.008
668.591	3449.258
668.719	3488.708
668.847	3457.250
668.975	3442.908
669.103	3467.758
669.231	3486.758
669.360	3422.783
669.488	3434.608
669.616	3439.792
669.744	3474.625
669.872	3425.717
670.000	3433.542
670.128	3417.558
670.256	3399.867
670.385	3425.300
670.513	3421.542
670.641	3446.233
670.769	3448.192
670.897	3397.475
671.025	3427.225
671.153	3423.050
671.281	3444.742
671.410	3464.108
671.538	3403.717
671.666	3432.550
671.794	3447.400
671.922	3409.975
672.050	3481.383
672.178	3382.583
672.306	3401.900
672.435	3387.267
672.563	3404.367
672.691	3435.000
672.819	3380.392
672.947	3377.117
673.075	3354.900
673.203	3394.833
673.331	3360.158
673.460	3364.525
673.588	3363.242
673.716	3390.417
673.844	3387.258
673.972	3364.542
674.100	3332.975
674.228	3328.467
674.356	3318.308
674.485	3333.358
674.613	3326.133
674.741	3332.950
674.869	3301.667
674.997	3342.717
675.125	3317.875
675.253	3287.000
675.381	3338.850
675.510	3268.850
675.638	3281.408
675.766	3259.942
675.894	3319.142
676.022	3258.733
676.150	3242.983
676.278	3254.125
676.406	3259.783
676.535	3268.800
676.663	3253.667
676.791	3209.425
676.919	3225.883
677.047	3181.708
677.175	3191.875
677.303	3290.950
677.431	3175.208
677.560	3171.775
677.688	3148.733
677.816	3205.275
677.944	3155.675
678.072	3116.242
678.200	3118.567
678.328	3127.408
678.456	3147.292
678.585	3108.183
678.713	3097.167
678.841	3092.517
678.969	3114.400
679.097	3093.675
679.225	3081.433
679.353	3079.317
679.481	3041.333
679.610	3038.175
679.738	3034.650
679.866	3061.642
679.994	3039.600
680.122	3056.308
680.250	2993.533
680.378	3037.558
680.506	2995.158
680.635	2995.767
680.763	3033.900
680.891	3012.508
681.019	2958.650
681.147	2989.008
681.275	2969.617
681.403	2940.867
681.531	2951.942
681.660	2945.117
681.788	3031.600
681.916	2897.633
682.044	2924.325
682.172	2945.600
682.300	2883.492
682.428	2894.750
682.556	2925.658
682.685	2909.433
682.813	2922.475
682.941	2867.358
683.069	2848.333
683.197	2896.392
683.325	2866.950
683.453	2856.683
683.581	2907.067
683.710	2860.117
683.838	2843.250
683.966	2832.858
684.094	2863.267
684.222	2833.658
684.350	2828.183
684.478	2817.292
684.606	2835.117
684.735	2826.367
684.863	2784.475
684.991	2851.408
685.119	2828.442
685.247	2877.383
685.375	2768.267
685.503	2804.458
685.631	2841.817
685.760	2786.083
685.888	2758.592
686.016	2787.767
686.144	2789.408
686.272	2755.558
686.400	2746.192
686.528	2730.758
686.656	2705.158
686.785	2712.525
686.913	2706.675
687.041	2694.058
687.169	2704.158
687.297	2763.217
687.425	2722.283
687.553	2698.775
687.681	2650.850
687.810	2689.508
687.938	2677.100
688.066	2654.317
688.194	2683.467
688.322	2676.183
688.450	2667.708
688.578	2644.608
688.706	2653.017
688.835	2675.067
688.963	2655.242
689.091	2653.092
689.219	2624.908
689.347	2622.217
689.475	2645.625
689.603	2620.725
689.731	2629.567
689.860	2619.900
689.988	2571.492
690.116	2587.950
690.244	2639.825
690.372	2592.125
690.500	2574.517
690.628	2592.758
690.756	2578.417
690.885	2545.175
691.013	2568.550
691.141	2551.167
691.269	2560.767
691.397	2524.992
691.525	2536.300
691.653	2534.000
691.781	2518.242
691.910	2526.717
692.038	2531.558
692.166	2507.942
692.294	2528.133
692.422	2498.725
692.550	2538.925
692.678	2504.467
692.806	2479.417
692.935	2465.108
693.063	2458.200
693.191	2455.708
693.319	2456.183
693.447	2436.483
693.575	2422.100
693.703	2436.375
693.831	2425.100
693.960	2420.550
694.088	2414.683
694.216	2397.425
694.344	2412.442
694.472	2398.450
694.600	2377.617
694.728	2378.058
694.856	2371.383
694.985	2348.192
695.113	2346.483
695.241	2332.517
695.369	2325.483
695.497	2340.483
695.625	2333.133
695.753	2309.283
695.881	2290.067
696.010	2299.450
696.138	2278.283
696.266	2282.942
696.394	2270.842
696.522	2246.683
696.650	2238.017
696.778	2236.275
696.906	2230.592
697.035	2216.958
697.163	2204.817
697.291	2208.692
697.419	2209.767
697.547	2182.367
697.675	2193.783
697.803	2173.300
697.931	2154.250
698.060	2149.917
698.188	2143.750
698.316	2151.183
698.444	2117.033
698.572	2108.467
698.700	2121.017
698.828	2106.733
698.956	2103.592
699.085	2086.783
699.213	2062.308
699.341	2067.975
699.469	2071.950
699.597	2070.308
699.725	2054.775
699.853	2035.258
699.981	2043.258
700.110	2018.475
700.238	2021.150
700.366	2016.083
700.494	1994.508
700.622	1990.258
700.750	1969.517
700.878	1979.725
701.006	1966.208
701.135	1968.825
701.263	1947.625
701.391	1925.583
701.519	1949.783
701.647	1938.983
701.775	1920.192
701.903	1915.917
702.031	1914.583
702.160	1900.483
702.288	1897.042
702.416	1884.208
702.544	1870.417
702.672	1864.950
702.800	1865.092
702.928	1878.517
703.056	1856.575
703.185	1855.067
703.313	1838.950
703.441	1832.200
703.569	1823.467
703.697	1840.283
703.825	1819.275
703.953	1823.792
704.081	1801.317
704.210	1795.175
704.338	1786.225
704.466	1779.300
704.594	1767.458
704.722	1761.825
704.850	1763.167
704.978	1753.442
705.106	1749.242
705.235	1730.433
705.363	1726.192
705.491	1723.542
705.619	1715.392
705.747	1713.625
705.875	1719.508
706.003	1690.392
706.131	1697.250
706.260	1673.450
706.388	1676.083
706.516	1654.017
706.644	1664.075
706.772	1660.333
706.900	1633.192
707.028	1635.808
707.156	1622.858
707.285	1629.750
707.413	1613.767
707.541	1599.675
707.669	1590.967
707.797	1602.142
707.925	1582.317
708.053	1577.483
708.181	1565.033
708.310	1559.842
708.438	1554.500
708.566	1542.642
708.694	1537.533
708.822	1535.850
708.950	1521.750
709.078	1500.092
709.206	1511.900
709.335	1502.575
709.463	1494.642
709.591	1490.758
709.719	1485.750
709.847	1476.408
709.975	1465.183
710.103	1452.000
710.231	1456.142
710.360	1432.300
710.488	1426.700
710.616	1424.350
710.744	1427.500
710.872	1429.092
711.000	1402.742
711.128	1397.150
711.256	1380.892
711.385	1391.417
711.513	1383.558
711.641	1378.133
711.769	1360.508
711.897	1360.967
712.025	1349.633
712.153	1344.792
712.281	1348.617
712.410	1338.233
712.538	1335.067
712.666	1316.392
712.794	1318.758
712.922	1313.283
713.050	1305.950
713.178	1297.317
713.306	1295.775
713.435	1290.108
713.563	1283.933
713.691	1287.942
713.819	1277.575
713.947	1258.200
714.075	1260.758
714.203	1260.367
714.331	1256.100
714.460	1244.300
714.588	1243.492
714.716	1239.542
714.844	1227.233
714.972	1217.267
715.100	1217.900
715.228	1205.417
715.356	1207.600
715.485	1198.850
715.613	1184.517
715.741	1183.225
715.869	1177.650
715.997	1164.775
716.125	1167.058
716.253	1163.075
716.381	1160.308
716.510	1167.992
716.638	1160.167
716.766	1147.175
716.894	1149.750
717.022	1130.892
717.150	1122.942
717.278	1130.292
717.406	1121.833
717.535	1119.433
717.663	1115.042
717.791	1114.942
717.919	1103.742
718.047	1105.283
718.175	1093.742
718.303	1099.267
718.431	1080.908
718.560	1090.175
718.688	1073.225
718.816	1065.242
718.944	1065.675
719.072	1075.358
719.200	1065.342
719.328	1053.758
719.456	1042.917
719.585	1046.883
719.713	1050.125
719.841	1040.658
719.969	1028.642
720.097	1020.633
720.225	1012.650
720.353	1011.208
720.481	1010.233
720.610	1008.083
720.738	1006.158
720.866	999.933
720.994	1000.392
721.122	1001.258
721.250	996.192
721.378	977.550
721.506	968.042
721.635	974.575
721.763	973.008
721.891	967.833
722.019	963.100
722.147	950.600
722.275	953.033
722.403	943.175
722.531	944.133
722.660	941.858
722.788	934.167
722.916	931.375
723.044	918.025
723.172	920.175
723.300	921.483
723.428	919.450
723.556	913.300
723.685	903.842
723.813	894.850
723.941	887.050
724.069	893.017
724.197	885.408
724.325	884.667
724.453	876.425
724.581	875.400
724.710	864.658
724.838	855.817
724.966	851.183
725.094	855.283
725.222	850.850
725.350	848.925
725.478	836.517
725.606	836.892
725.735	815.525
725.863	830.000
725.991	817.308
726.119	812.258
726.247	810.617
726.375	804.983
726.503	803.650
726.631	794.717
726.760	797.975
726.888	795.267
727.016	788.642
727.144	784.900
727.272	770.192
727.400	776.500
727.528	771.492
727.656	760.533
727.785	763.425
727.913	759.650
728.041	748.917
728.169	764.458
728.297	748.000
728.425	743.233
728.553	738.142
728.681	729.567
728.810	732.708
728.938	726.700
729.066	725.092
729.194	726.258
729.322	709.308
729.450	704.458
729.578	707.983
729.706	707.967
729.835	708.233
729.963	699.108
730.091	690.633
730.219	691.525
730.347	692.975
730.475	679.850
730.603	670.867
730.731	682.283
730.860	671.800
730.988	666.175
731.116	667.583
731.244	672.358
731.372	662.542
731.500	661.042
731.628	653.900
731.756	645.875
731.885	653.383
732.013	646.458
732.141	641.583
732.269	636.542
732.397	637.183
732.525	634.025
732.653	631.533
732.781	630.425
732.910	629.042
733.038	617.700
733.166	619.433
733.294	619.767
733.422	617.242
733.550	607.717
733.678	613.700
733.806	614.667
733.935	604.900
734.063	597.425
734.191	599.417
734.319	587.517
734.447	591.225
734.575	592.292
734.703	588.975
734.831	582.858
734.960	586.508
735.088	584.242
735.216	575.875
735.344	577.225
735.472	569.525
735.600	567.592
735.728	568.283
735.856	565.008
735.985	560.383
736.113	559.300
736.241	560.592
736.369	556.925
736.497	548.117
736.625	550.500
736.753	556.433
736.881	545.542
737.010	542.425
737.138	540.917
737.266	541.075
737.394	536.817
737.522	540.667
737.650	535.467
737.778	533.492
737.906	524.750
738.035	517.342
738.163	524.275
738.291	524.033
738.419	515.892
738.547	515.425
738.675	513.542
738.803	508.817
738.931	511.242
739.060	509.842
739.188	504.550
739.316	501.375
739.444	500.342
739.572	497.292
739.700	495.008
739.828	495.375
739.956	491.283
740.085	489.883
740.213	489.700
740.341	479.883
740.469	481.233
740.597	479.950
740.725	483.267
740.853	474.192
740.981	473.350
741.110	474.425
741.238	478.567
741.366	475.483
741.494	470.442
741.622	461.142
741.750	472.350
741.878	470.050
742.006	461.075
742.135	456.550
742.263	459.400
742.391	451.300
742.519	461.417
742.647	451.542
742.775	452.592
742.903	450.550
743.031	449.058
743.160	447.833
743.288	444.667
743.416	441.425
743.544	437.442
743.672	439.717
743.800	440.875
743.928	437.492
744.056	430.317
744.185	434.050
744.313	432.758
744.441	434.708
744.569	429.392
744.697	425.317
744.825	429.508
744.953	426.567
745.081	419.608
745.210	420.675
745.338	425.692
745.466	418.250
745.594	413.983
745.722	419.217
745.850	408.975
745.978	412.200
746.106	409.650
746.235	406.908
746.363	405.392
746.491	404.883
746.619	403.200
746.747	401.142
746.875	395.383
747.003	400.108
747.131	396.667
747.260	392.850
747.388	394.850
747.516	394.783
747.644	389.475
747.772	391.192
747.900	385.433
748.028	388.483
748.156	378.750
748.285	383.583
748.413	380.200
748.541	376.500
748.669	375.875
748.797	374.042
748.925	373.333
749.053	375.933
749.181	372.575
749.310	372.592
749.438	368.700
749.566	366.458
749.694	365.783
749.822	366.883
749.950	364.925
750.078	367.442
750.206	355.858
750.335	357.242
750.463	357.058
750.591	357.075
750.719	354.383
750.847	353.783
750.975	350.092
751.103	344.108
751.231	345.892
751.360	349.442
751.488	348.608
751.616	342.950
751.744	342.550
751.872	340.325
752.000	342.117
752.128	338.750
752.256	336.800
752.385	335.567
752.513	332.100
752.641	327.025
752.769	333.242
752.897	334.642
753.025	326.808
753.153	323.208
753.281	326.617
753.410	327.975
753.538	326.117
753.666	324.750
753.794	320.958
753.922	322.567
754.050	319.375
754.178	317.275
754.306	313.375
754.435	312.950
754.563	315.725
754.691	313.517
754.819	312.275
754.947	308.642
755.075	311.142
755.203	308.575
755.331	309.700
755.460	303.525
755.588	304.600
755.716	302.275
755.844	304.258
755.972	298.733
756.100	304.125
756.228	304.642
756.356	299.208
756.485	303.992
756.613	298.967
756.741	297.667
756.869	293.575
756.997	301.058
757.125	294.500
757.253	294.192
757.381	295.208
757.510	293.292
757.638	289.008
757.766	291.633
757.894	283.958
758.022	287.567
758.150	287.475
758.278	288.592
758.406	280.925
758.535	287.208
758.663	282.608
758.791	282.642
758.919	279.125
759.047	281.308
759.175	278.192
759.303	279.025
759.431	276.133
759.560	275.208
759.688	274.800
759.816	278.050
759.944	275.400
760.072	272.450
760.200	270.642
760.328	273.833
760.456	270.092
760.585	267.283
760.713	265.858
760.841	265.325
760.969	264.025
761.097	264.583
761.225	264.933
761.353	266.308
761.481	263.417
761.610	258.417
761.738	256.983
761.866	259.092
761.994	257.700
762.122	257.100
762.250	258.308
762.378	255.508
762.506	255.950
762.635	254.950
762.763	251.133
762.891	252.042
763.019	252.675
763.147	249.367
763.275	251.850
763.403	248.075
763.531	245.383
763.660	247.133
763.788	249.725
763.916	245.408
764.044	246.850
764.172	245.717
764.300	244.325
764.428	241.017
764.556	242.833
764.685	241.442
764.813	241.833
764.941	239.017
765.069	242.308
765.197	239.533
765.325	238.150
765.453	236.725
765.581	239.442
765.710	235.783
765.838	236.750
765.966	236.475
766.094	233.600
766.222	235.108
766.350	231.358
766.478	231.875
766.606	232.400
766.735	229.067
766.863	229.375
766.991	230.225
767.119	230.008
767.247	229.333
767.375	228.350
767.503	224.617
767.631	224.342
767.760	226.483
767.888	224.417
768.016	222.292
768.144	222.658
768.272	221.517
768.400	222.683
768.528	224.450
768.656	218.717
768.785	221.308
768.913	219.258
769.041	220.250
769.169	217.183
769.297	216.025
769.425	215.350
769.553	216.900
769.681	217.375
769.810	215.450
769.938	214.217
770.066	213.642
770.194	214.158
770.322	215.067
770.450	215.033
770.578	211.517
770.706	211.475
770.835	214.100
770.963	213.517
771.091	207.417
771.219	211.758
771.347	208.767
771.475	210.892
771.603	208.317
771.731	207.900
771.860	206.067
771.988	204.625
772.116	206.558
772.244	206.967
772.372	204.408
772.500	205.358
772.628	205.633
772.756	203.508
772.885	203.542
773.013	203.942
773.141	201.975
773.269	200.742
773.397	202.067
773.525	202.458
773.653	198.083
773.781	199.658
773.910	197.350
774.038	199.367
774.166	196.300
774.294	195.408
774.422	196.200
774.550	196.725
774.678	193.342
774.806	195.242
774.935	197.108
775.063	190.850
775.191	197.783
775.319	194.758
775.447	192.383
775.575	189.125
775.703	192.642
775.831	189.667
775.960	190.208
776.088	190.025
776.216	188.767
776.344	190.000
776.472	190.442
776.600	186.425
776.728	189.042
776.856	186.492
776.985	186.483
777.113	183.958
777.241	183.742
777.369	185.158
777.497	184.167
777.625	184.475
777.753	180.617
777.881	184.392
778.010	180.308
778.138	182.058
778.266	179.558
778.394	182.842
778.522	183.583
778.650	180.583
778.778	178.683
778.906	180.375
779.035	182.058
779.163	178.142
779.291	180.033
779.419	177.217
779.547	178.242
779.675	178.567
779.803	178.458
779.931	175.000
780.060	176.442
780.188	177.258
780.316	173.908
780.444	175.983
780.572	174.125
780.700	175.208
780.828	173.183
780.956	172.825
781.085	174.050
781.213	173.375
781.341	171.742
781.469	172.225
781.597	172.725
781.725	170.908
781.853	171.525
781.981	169.092
782.110	171.300
782.238	169.092
782.366	169.433
782.494	167.292
782.622	167.642
782.750	168.717
782.878	166.408
783.006	165.600
783.135	168.958
783.263	163.608
783.391	168.108
783.519	164.917
783.647	167.292
783.775	164.042
783.903	163.042
784.031	162.550
784.160	163.542
784.288	163.217
784.416	162.817
784.544	159.917
784.672	161.708
784.800	162.167
784.928	159.525
785.056	160.275
785.185	159.725
785.313	161.542
785.441	159.375
785.569	158.800
785.697	160.675
785.825	158.708
785.953	158.817
786.081	157.417
786.210	159.042
786.338	157.858
786.466	155.600
786.594	159.350
786.722	157.792
786.850	154.808
786.978	153.775
787.106	155.675
787.235	154.008
787.363	156.725
787.491	154.533
787.619	153.383
787.747	154.400
787.875	153.817
788.003	151.658
788.131	153.775
788.260	152.325
788.388	152.750
788.516	150.717
788.644	151.575
788.772	153.408
788.900	152.700
789.028	148.067
789.156	150.133
789.285	149.300
789.413	148.875
789.541	150.183
789.669	148.875
789.797	148.767
789.925	147.758
790.053	148.075
790.181	147.233
790.310	146.658
790.438	147.000
790.566	147.142
790.694	146.942
790.822	146.633
790.950	147.275
791.078	145.833
791.206	143.858
791.335	144.600
791.463	146.350
791.591	144.117
791.719	144.100
791.847	143.750
791.975	141.967
792.103	142.008
792.231	144.333
792.360	141.617
792.488	142.675
792.616	144.300
792.744	141.750
792.872	140.383
793.000	141.500
793.128	142.267
793.256	139.567
793.385	139.800
793.513	139.675
793.641	141.725
793.769	139.975
793.897	141.667
794.025	140.717
794.153	139.133
794.281	140.533
794.410	137.950
794.538	140.242
794.666	137.442
794.794	138.458
794.922	138.008
795.050	136.317
795.178	138.192
795.306	135.433
795.435	137.442
795.563	136.158
795.691	134.425
795.819	135.467
795.947	136.775
796.075	136.575
796.203	136.250
796.331	135.508
796.460	133.817
796.588	134.325
796.716	134.208
796.844	134.383
796.972	135.842
797.100	135.100
797.228	133.275
797.356	134.242
797.485	133.450
797.613	131.467
797.741	134.617
797.869	133.333
797.997	133.758
798.125	133.033
798.253	132.958
798.381	131.567
798.510	131.775
798.638	131.842
798.766	134.567
798.894	131.550
799.022	131.258
799.150	132.425
799.278	130.717
799.406	131.117
799.535	129.350
799.663	131.375
799.791	129.217
799.919	130.717
800.047	131.642
800.175	130.792
800.303	128.717
800.431	130.467
800.560	130.058
800.688	129.833
800.816	128.942
800.944	128.542
801.072	129.592
801.200	129.142
801.328	128.933
801.456	128.283
801.585	129.542
801.713	127.842
801.841	128.992
801.969	127.175
802.097	129.283
802.225	127.483
802.353	127.875
802.481	127.708
802.610	128.025
802.738	126.508
802.866	127.417
802.994	125.342
803.122	128.033
803.250	126.008
803.378	126.333
803.506	128.217
803.635	127.992
803.763	125.392
803.891	125.892
804.019	127.233
804.147	125.042
804.275	125.975
804.403	124.400
804.531	125.358
804.660	123.708
804.788	123.975
804.916	123.667
805.044	124.700
805.172	124.233
805.300	122.900
805.428	124.042
805.556	123.908
805.685	123.958
805.813	124.167
805.941	123.658
806.069	123.450
806.197	124.167
806.325	121.675
806.453	122.533
806.581	121.767
806.710	122.433
806.838	121.058
806.966	122.900
807.094	123.192
807.222	121.150
807.350	122.208
807.478	121.692
807.606	122.483
807.735	120.575
807.863	122.108
807.991	122.217
808.119	121.083
808.247	121.992
808.375	120.950
808.503	120.108
808.631	122.108
808.760	120.150
808.888	120.233
809.016	120.358
809.144	119.550
809.272	121.492
809.400	121.875
809.528	120.200
809.656	120.858
809.785	118.708
809.913	120.350
810.041	121.417
810.169	119.358
810.297	118.883
810.425	120.375
810.553	117.133
810.681	119.983
810.810	118.792
810.938	120.300
811.066	116.375
811.194	118.492
811.322	117.167
811.450	118.200
811.578	118.508
811.706	118.300
811.835	117.608
811.963	117.675
812.091	119.825
812.219	118.408
812.347	119.567
812.475	116.892
812.603	117.050
812.731	117.600
812.860	117.667
812.988	118.742
813.116	116.858
813.244	118.083
813.372	117.292
813.500	116.667
813.628	116.933
813.756	117.050
813.885	116.142
814.013	116.250
814.141	117.983
814.269	115.717
814.397	115.833
814.525	115.400
814.653	116.267
814.781	115.258
814.910	115.283
815.038	115.933
815.166	117.192
815.294	114.533
815.422	116.175
815.550	114.900
815.678	115.550
815.806	116.033
815.935	115.133
816.063	114.592
816.191	114.867
816.319	115.933
816.447	115.300
816.575	114.817
816.703	113.975
816.831	115.425
816.960	115.858
817.088	113.925
817.216	113.700
817.344	113.783
817.472	115.108
817.600	114.300
817.728	114.183
817.856	114.067
817.985	112.000
818.113	113.525
818.241	114.058
818.369	113.342
818.497	115.458
818.625	113.450
818.753	112.267
818.881	114.133
819.010	113.475
819.138	113.292
819.266	112.458
819.394	111.675
819.522	112.200
819.650	114.333
819.778	112.975
819.906	113.125
820.035	113.150
820.163	112.283
820.291	112.308
820.419	111.958
820.547	113.192
820.675	111.467
820.803	113.192
820.931	112.883
821.060	110.025
821.188	111.875
821.316	111.267
821.444	112.700
821.572	111.883
821.700	111.708
821.828	111.267
821.956	111.725
822.085	111.917
822.213	111.858
822.341	112.133
822.469	111.275
822.597	110.400
822.725	111.300
822.853	111.292
822.981	110.800
823.110	112.142
823.238	108.900
823.366	111.008
823.494	110.667
823.622	109.875
823.750	110.767
823.878	109.575
824.006	112.300
824.135	111.725
824.263	112.108
824.391	109.675
824.519	111.317
824.647	112.067
824.775	112.633
824.903	111.542
825.031	111.925
825.160	111.108
825.288	111.933
825.416	111.083
825.544	110.375
825.672	111.000
825.800	110.933
825.928	111.058
826.056	110.075
826.185	109.175
826.313	110.058
826.441	110.350
826.569	109.892
826.697	109.842
826.825	109.050
826.953	110.283
827.081	108.700
827.210	109.483
827.338	108.933
827.466	109.625
827.594	110.808
827.722	110.067
827.850	109.808
827.978	109.108
828.106	109.900
828.235	110.000
828.363	109.633
828.491	109.975
828.619	108.742
828.747	109.850
828.875	108.533
829.003	110.583
829.131	110.567
829.260	111.517
829.388	109.542
829.516	109.633
829.644	108.908
829.772	110.092
829.900	109.975
830.028	109.375
830.156	108.575
830.285	109.408
830.413	109.733
830.541	109.692
830.669	109.267
830.797	109.033
830.925	109.525
831.053	108.575
831.181	109.142
831.310	109.117
831.438	108.875
831.566	108.817
831.694	107.858
831.822	108.283
831.950	108.658
832.078	109.375
832.206	107.642
832.335	108.150
832.463	108.733
832.591	108.050
832.719	108.542
832.847	108.542
832.975	107.408
833.103	108.592
833.231	108.375
833.360	108.767
833.488	108.467
833.616	107.300
833.744	108.025
833.872	109.408
834.000	108.725
834.128	108.400
834.256	107.900
834.385	107.008
834.513	109.058
834.641	106.767
834.769	107.892
834.897	108.300
835.025	106.175
835.153	106.650
835.281	108.450
835.410	107.992
835.538	107.950
835.666	107.392
835.794	107.475
835.922	108.117
836.050	108.250
836.178	107.217
836.306	107.925
836.435	107.725
836.563	107.133
836.691	107.600
836.819	108.033
836.947	106.633
837.075	106.442
837.203	106.825
837.331	107.708
837.460	108.033
837.588	107.075
837.716	107.108
837.844	107.125
837.972	106.942
838.100	107.400
838.228	106.992
838.356	105.917
838.485	105.350
838.613	106.783
838.741	107.092
838.869	106.917
838.997	107.825
839.125	105.400
839.253	106.517
839.381	107.792
839.510	106.775
839.638	106.533
839.766	105.258
839.894	106.775
840.022	107.308
840.150	106.717
840.278	105.950
840.406	106.633
840.535	107.408
840.663	106.092
840.791	105.942
840.919	106.383
841.047	106.492
841.175	106.758
841.303	106.392
841.431	106.875
841.560	106.142
841.688	106.275
841.816	106.208
841.944	105.958
842.072	106.158
842.200	106.808
842.328	106.375
842.456	106.908
842.585	106.633
842.713	106.867
842.841	106.133
842.969	106.475
843.097	107.067
843.225	105.550
843.353	106.483
843.481	106.333
843.610	106.050
843.738	105.625
843.866	106.108
