90-90-90_at_679.99nm_cut_at_1250.00Y_01.dat
24.01.2024
13:28:08
cut middle at Y: 1250.00
top cursor: 1310 down cursor: 1190 mean of: 120 lines , 2560 datapoints
wavelength(nm)	intensity[arb. units]
515.994	286.450
516.122	275.042
516.250	271.592
516.378	267.125
516.506	264.942
516.635	267.075
516.763	270.750
516.891	272.250
517.019	273.883
517.147	270.708
517.275	274.467
517.403	274.733
517.531	269.308
517.660	269.875
517.788	268.817
517.916	276.167
518.044	271.175
518.172	273.783
518.300	274.825
518.428	272.383
518.556	274.133
518.685	271.025
518.813	278.358
518.941	279.275
519.069	273.442
519.197	274.642
519.325	279.783
519.453	278.292
519.581	279.758
519.710	276.408
519.838	279.817
519.966	277.733
520.094	280.650
520.222	277.017
520.350	276.625
520.478	279.883
520.606	285.108
520.735	280.758
520.863	286.067
520.991	283.675
521.119	280.142
521.247	283.767
521.375	282.217
521.503	288.100
521.631	289.558
521.760	287.400
521.888	287.933
522.016	291.025
522.144	288.000
522.272	294.208
522.400	289.442
522.528	293.367
522.656	289.442
522.785	292.642
522.913	290.475
523.041	286.242
523.169	287.133
523.297	288.967
523.425	290.217
523.553	294.050
523.681	292.108
523.810	292.892
523.938	295.050
524.066	293.192
524.194	294.908
524.322	293.392
524.450	288.950
524.578	291.758
524.706	299.792
524.835	290.033
524.963	294.942
525.091	292.750
525.219	296.867
525.347	293.258
525.475	294.233
525.603	294.792
525.731	292.708
525.860	294.458
525.988	292.850
526.116	291.783
526.244	297.458
526.372	294.642
526.500	295.858
526.628	298.100
526.756	292.425
526.885	298.417
527.013	293.583
527.141	297.292
527.269	295.458
527.397	297.458
527.525	295.567
527.653	297.225
527.781	293.600
527.910	300.342
528.038	299.817
528.166	302.400
528.294	296.375
528.422	297.492
528.550	300.308
528.678	300.583
528.806	301.083
528.935	300.042
529.063	302.383
529.191	301.900
529.319	306.008
529.447	305.067
529.575	302.767
529.703	300.917
529.831	304.767
529.960	304.750
530.088	304.925
530.216	307.842
530.344	303.425
530.472	307.467
530.600	309.175
530.728	307.700
530.856	306.083
530.985	309.000
531.113	306.658
531.241	312.283
531.369	315.967
531.497	308.642
531.625	311.017
531.753	307.925
531.881	311.767
532.010	315.242
532.138	310.367
532.266	305.650
532.394	308.167
532.522	307.025
532.650	311.058
532.778	312.500
532.906	310.533
533.035	311.958
533.163	310.400
533.291	308.000
533.419	309.617
533.547	309.817
533.675	310.525
533.803	306.958
533.931	306.533
534.060	310.942
534.188	313.758
534.316	311.733
534.444	305.992
534.572	311.883
534.700	309.825
534.828	312.317
534.956	310.300
535.085	312.992
535.213	311.725
535.341	311.108
535.469	310.817
535.597	315.175
535.725	318.417
535.853	314.467
535.981	315.142
536.110	319.317
536.238	317.842
536.366	318.850
536.494	316.092
536.622	321.775
536.750	318.158
536.878	321.392
537.006	322.425
537.135	322.192
537.263	319.908
537.391	325.817
537.519	322.458
537.647	326.350
537.775	323.450
537.903	327.417
538.031	321.750
538.160	323.400
538.288	327.017
538.416	327.092
538.544	323.858
538.672	329.567
538.800	326.267
538.928	327.608
539.056	333.217
539.185	328.717
539.313	334.017
539.441	328.408
539.569	330.617
539.697	329.133
539.825	330.217
539.953	328.617
540.081	329.750
540.210	332.508
540.338	328.800
540.466	332.975
540.594	328.700
540.722	333.175
540.850	334.375
540.978	330.000
541.106	328.875
541.235	333.317
541.363	330.342
541.491	330.358
541.619	328.567
541.747	328.250
541.875	329.558
542.003	327.967
542.131	328.058
542.260	334.700
542.388	328.792
542.516	333.300
542.644	332.933
542.772	331.908
542.900	333.050
543.028	331.633
543.156	333.467
543.285	333.675
543.413	332.108
543.541	334.725
543.669	333.783
543.797	335.942
543.925	332.850
544.053	338.958
544.181	334.517
544.310	331.908
544.438	331.808
544.566	334.075
544.694	336.592
544.822	329.850
544.950	333.775
545.078	335.433
545.206	336.808
545.335	332.875
545.463	335.233
545.591	336.683
545.719	338.167
545.847	335.925
545.975	335.975
546.103	336.200
546.231	339.758
546.360	337.425
546.488	339.358
546.616	340.242
546.744	340.467
546.872	336.000
547.000	341.675
547.128	343.700
547.256	338.917
547.385	340.717
547.513	339.683
547.641	337.525
547.769	344.708
547.897	340.242
548.025	341.050
548.153	344.258
548.281	341.975
548.410	345.158
548.538	344.033
548.666	344.717
548.794	342.650
548.922	344.067
549.050	342.750
549.178	344.575
549.306	345.733
549.435	346.242
549.563	346.208
549.691	344.542
549.819	349.133
549.947	349.217
550.075	346.450
550.203	343.108
550.331	346.192
550.460	346.450
550.588	344.192
550.716	346.183
550.844	342.975
550.972	342.567
551.100	345.000
551.228	347.017
551.356	345.275
551.485	342.975
551.613	346.092
551.741	345.467
551.869	342.092
551.997	343.408
552.125	340.658
552.253	341.208
552.381	343.142
552.510	343.867
552.638	339.392
552.766	341.333
552.894	338.675
553.022	339.542
553.150	337.983
553.278	343.675
553.406	339.350
553.535	338.642
553.663	343.100
553.791	336.817
553.919	337.967
554.047	342.100
554.175	339.325
554.303	340.883
554.431	338.800
554.560	338.050
554.688	343.133
554.816	337.850
554.944	337.117
555.072	341.108
555.200	340.508
555.328	340.967
555.456	341.183
555.585	343.625
555.713	341.950
555.841	344.683
555.969	339.442
556.097	343.692
556.225	345.275
556.353	350.358
556.481	340.242
556.610	348.458
556.738	345.733
556.866	345.250
556.994	341.925
557.122	346.450
557.250	348.708
557.378	347.917
557.506	345.642
557.635	347.000
557.763	346.600
557.891	352.267
558.019	350.375
558.147	350.983
558.275	346.825
558.403	354.425
558.531	346.075
558.660	352.683
558.788	350.558
558.916	347.542
559.044	347.208
559.172	351.000
559.300	357.875
559.428	353.425
559.556	350.192
559.685	348.233
559.813	351.442
559.941	349.067
560.069	355.067
560.197	355.450
560.325	357.267
560.453	353.017
560.581	353.625
560.710	352.133
560.838	355.808
560.966	352.742
561.094	352.175
561.222	352.192
561.350	353.325
561.478	354.017
561.606	355.083
561.735	353.117
561.863	351.842
561.991	352.583
562.119	346.275
562.247	353.525
562.375	353.392
562.503	350.792
562.631	351.925
562.760	352.483
562.888	356.658
563.016	351.992
563.144	353.783
563.272	351.442
563.400	349.625
563.528	348.558
563.656	349.433
563.785	349.042
563.913	351.733
564.041	351.767
564.169	350.158
564.297	350.883
564.425	349.225
564.553	354.150
564.681	352.100
564.810	349.392
564.938	348.392
565.066	351.642
565.194	351.033
565.322	354.392
565.450	349.225
565.578	357.292
565.706	352.275
565.835	350.317
565.963	354.267
566.091	348.825
566.219	354.608
566.347	354.717
566.475	357.158
566.603	355.525
566.731	353.292
566.860	357.217
566.988	352.592
567.116	356.950
567.244	359.033
567.372	358.233
567.500	361.742
567.628	359.417
567.756	363.858
567.885	363.175
568.013	356.017
568.141	358.742
568.269	361.767
568.397	360.167
568.525	362.558
568.653	364.708
568.781	368.900
568.910	366.542
569.038	366.442
569.166	365.817
569.294	364.492
569.422	368.142
569.550	368.908
569.678	370.225
569.806	369.225
569.935	370.525
570.063	373.992
570.191	370.967
570.319	372.533
570.447	374.133
570.575	367.608
570.703	373.883
570.831	370.883
570.960	380.750
571.088	376.117
571.216	373.025
571.344	374.858
571.472	377.333
571.600	376.575
571.728	373.975
571.856	376.375
571.985	377.708
572.113	378.317
572.241	376.775
572.369	383.675
572.497	375.892
572.625	385.033
572.753	379.517
572.881	381.800
573.010	384.992
573.138	383.100
573.266	382.367
573.394	383.592
573.522	386.633
573.650	385.767
573.778	383.825
573.906	383.967
574.035	385.000
574.163	386.292
574.291	381.642
574.419	386.192
574.547	386.975
574.675	386.583
574.803	393.142
574.931	384.358
575.060	393.067
575.188	388.017
575.316	382.750
575.444	388.792
575.572	392.575
575.700	383.883
575.828	388.658
575.956	386.475
576.085	384.700
576.213	389.425
576.341	384.900
576.469	385.550
576.597	383.583
576.725	386.425
576.853	387.567
576.981	386.542
577.110	384.808
577.238	388.050
577.366	383.442
577.494	383.692
577.622	387.050
577.750	385.592
577.878	381.300
578.006	385.450
578.135	385.775
578.263	385.592
578.391	385.125
578.519	382.242
578.647	386.308
578.775	386.242
578.903	385.367
579.031	389.683
579.160	388.617
579.288	381.908
579.416	383.667
579.544	383.558
579.672	383.817
579.800	379.208
579.928	379.625
580.056	382.150
580.185	386.783
580.313	385.025
580.441	384.050
580.569	385.392
580.697	384.583
580.825	385.083
580.953	383.592
581.081	385.175
581.210	389.192
581.338	388.142
581.466	389.017
581.594	387.467
581.722	388.800
581.850	389.825
581.978	388.308
582.106	388.475
582.235	387.950
582.363	384.958
582.491	394.983
582.619	393.408
582.747	396.825
582.875	394.717
583.003	396.450
583.131	394.500
583.260	400.842
583.388	399.875
583.516	395.583
583.644	395.800
583.772	403.775
583.900	402.725
584.028	402.750
584.156	403.008
584.285	404.942
584.413	404.550
584.541	405.333
584.669	406.050
584.797	405.758
584.925	407.158
585.053	407.692
585.181	412.975
585.310	411.433
585.438	410.217
585.566	411.850
585.694	414.783
585.822	416.250
585.950	415.642
586.078	416.908
586.206	422.008
586.335	421.892
586.463	419.325
586.591	422.125
586.719	418.000
586.847	419.233
586.975	423.217
587.103	422.992
587.231	415.642
587.360	425.050
587.488	426.842
587.616	430.008
587.744	433.108
587.872	425.983
588.000	425.258
588.128	432.817
588.256	432.917
588.385	426.983
588.513	424.725
588.641	429.233
588.769	432.367
588.897	428.650
589.025	428.675
589.153	433.650
589.281	429.317
589.410	430.333
589.538	434.317
589.666	431.067
589.794	433.400
589.922	434.533
590.050	428.225
590.178	428.267
590.306	432.383
590.435	432.592
590.563	429.800
590.691	438.408
590.819	434.442
590.947	438.383
591.075	436.783
591.203	438.783
591.331	436.675
591.460	435.092
591.588	437.242
591.716	439.650
591.844	442.342
591.972	437.050
592.100	432.583
592.228	440.850
592.356	442.467
592.485	440.225
592.613	435.667
592.741	439.358
592.869	440.392
592.997	440.725
593.125	444.100
593.253	442.900
593.381	439.367
593.510	450.833
593.638	447.075
593.766	443.192
593.894	445.750
594.022	446.917
594.150	442.117
594.278	452.025
594.406	445.608
594.535	450.592
594.663	453.833
594.791	456.000
594.919	450.808
595.047	460.233
595.175	449.883
595.303	453.800
595.431	455.508
595.560	457.242
595.688	455.233
595.816	456.275
595.944	458.375
596.072	460.333
596.200	462.583
596.328	463.308
596.456	464.917
596.585	459.275
596.713	465.758
596.841	466.192
596.969	463.617
597.097	462.100
597.225	469.933
597.353	465.017
597.481	465.617
597.610	473.783
597.738	471.325
597.866	475.925
597.994	473.517
598.122	471.692
598.250	470.917
598.378	474.958
598.506	475.800
598.635	473.525
598.763	476.658
598.891	478.442
599.019	481.417
599.147	475.392
599.275	475.108
599.403	481.708
599.531	478.817
599.660	485.075
599.788	485.233
599.916	485.592
600.044	489.125
600.172	486.325
600.300	487.925
600.428	487.092
600.556	489.425
600.685	489.025
600.813	490.883
600.941	490.342
601.069	488.967
601.197	495.300
601.325	496.467
601.453	493.942
601.581	498.600
601.710	499.642
601.838	503.508
601.966	500.925
602.094	501.242
602.222	505.617
602.350	503.625
602.478	502.917
602.606	508.142
602.735	505.125
602.863	512.150
602.991	507.517
603.119	514.225
603.247	512.675
603.375	514.083
603.503	512.308
603.631	515.517
603.760	516.008
603.888	517.175
604.016	514.975
604.144	518.625
604.272	520.875
604.400	521.325
604.528	523.850
604.656	529.358
604.785	521.067
604.913	533.817
605.041	532.008
605.169	536.617
605.297	534.058
605.425	537.883
605.553	533.550
605.681	533.442
605.810	534.933
605.938	537.108
606.066	534.367
606.194	537.142
606.322	541.208
606.450	544.542
606.578	546.808
606.706	544.483
606.835	542.808
606.963	550.258
607.091	541.392
607.219	548.908
607.347	544.958
607.475	551.775
607.603	550.475
607.731	550.917
607.860	546.433
607.988	547.933
608.116	554.950
608.244	549.200
608.372	551.975
608.500	555.217
608.628	553.092
608.756	548.008
608.885	554.875
609.013	555.858
609.141	558.758
609.269	553.792
609.397	556.425
609.525	559.883
609.653	558.333
609.781	560.325
609.910	557.450
610.038	557.450
610.166	559.075
610.294	559.342
610.422	560.950
610.550	565.883
610.678	556.925
610.806	559.342
610.935	563.233
611.063	560.033
611.191	561.625
611.319	563.592
611.447	561.392
611.575	564.042
611.703	556.392
611.831	568.317
611.960	564.608
612.088	563.267
612.216	568.042
612.344	562.708
612.472	570.650
612.600	568.017
612.728	561.292
612.856	573.967
612.985	559.533
613.113	568.042
613.241	568.933
613.369	572.117
613.497	571.042
613.625	573.200
613.753	568.708
613.881	564.292
614.010	568.292
614.138	566.892
614.266	572.775
614.394	576.508
614.522	573.583
614.650	577.592
614.778	572.567
614.906	583.342
615.035	579.508
615.163	579.008
615.291	581.467
615.419	579.092
615.547	577.192
615.675	586.408
615.803	583.700
615.931	589.900
616.060	592.700
616.188	585.817
616.316	587.875
616.444	585.408
616.572	591.425
616.700	584.967
616.828	597.258
616.956	590.983
617.085	601.450
617.213	599.942
617.341	594.742
617.469	596.975
617.597	602.750
617.725	601.508
617.853	602.133
617.981	598.925
618.110	605.508
618.238	606.717
618.366	615.267
618.494	612.508
618.622	616.883
618.750	609.583
618.878	609.667
619.006	616.783
619.135	624.708
619.263	617.967
619.391	617.708
619.519	619.950
619.647	625.117
619.775	623.083
619.903	630.100
620.031	628.008
620.160	631.025
620.288	625.100
620.416	638.833
620.544	639.908
620.672	642.683
620.800	641.283
620.928	647.083
621.056	641.350
621.185	644.475
621.313	647.908
621.441	649.192
621.569	657.633
621.697	651.500
621.825	656.325
621.953	661.933
622.081	661.050
622.210	654.542
622.338	658.775
622.466	660.800
622.594	659.575
622.722	665.200
622.850	666.658
622.978	661.167
623.106	666.042
623.235	675.058
623.363	670.633
623.491	669.558
623.619	664.358
623.747	675.667
623.875	671.667
624.003	672.075
624.131	671.492
624.260	669.667
624.388	676.092
624.516	685.850
624.644	672.175
624.772	681.175
624.900	684.258
625.028	684.942
625.156	688.400
625.285	680.325
625.413	686.992
625.541	688.350
625.669	688.150
625.797	685.075
625.925	687.683
626.053	690.608
626.181	701.175
626.310	690.867
626.438	691.525
626.566	690.092
626.694	691.442
626.822	695.992
626.950	703.475
627.078	703.092
627.206	698.642
627.335	702.408
627.463	699.350
627.591	703.825
627.719	698.792
627.847	710.500
627.975	708.208
628.103	709.792
628.231	705.592
628.360	703.433
628.488	713.392
628.616	709.333
628.744	705.000
628.872	706.308
629.000	706.167
629.128	714.833
629.256	717.842
629.385	722.483
629.513	709.492
629.641	720.792
629.769	715.708
629.897	717.317
630.025	717.158
630.153	723.017
630.281	723.142
630.410	719.017
630.538	732.358
630.666	716.242
630.794	721.058
630.922	723.517
631.050	726.950
631.178	724.167
631.306	723.758
631.435	723.475
631.563	737.850
631.691	723.975
631.819	728.000
631.947	736.050
632.075	729.633
632.203	733.350
632.331	735.625
632.460	728.058
632.588	730.967
632.716	740.700
632.844	734.250
632.972	739.408
633.100	741.433
633.228	739.075
633.356	739.558
633.485	743.558
633.613	750.092
633.741	741.133
633.869	745.333
633.997	740.467
634.125	741.342
634.253	737.333
634.381	745.017
634.510	745.500
634.638	736.283
634.766	749.167
634.894	738.467
635.022	745.708
635.150	745.358
635.278	762.775
635.406	752.367
635.535	750.517
635.663	758.758
635.791	752.300
635.919	760.350
636.047	755.208
636.175	750.567
636.303	755.067
636.431	758.508
636.560	760.508
636.688	763.250
636.816	758.775
636.944	760.708
637.072	761.900
637.200	761.275
637.328	761.083
637.456	764.708
637.585	762.750
637.713	766.100
637.841	765.608
637.969	765.067
638.097	758.283
638.225	768.842
638.353	774.133
638.481	778.250
638.610	774.308
638.738	773.367
638.866	769.367
638.994	769.225
639.122	777.992
639.250	786.333
639.378	781.817
639.506	776.308
639.635	784.742
639.763	777.642
639.891	782.775
640.019	788.408
640.147	785.467
640.275	785.525
640.403	786.408
640.531	781.392
640.660	785.200
640.788	794.742
640.916	787.500
641.044	807.375
641.172	796.700
641.300	793.833
641.428	800.750
641.556	795.192
641.685	798.100
641.813	798.825
641.941	800.492
642.069	807.158
642.197	801.675
642.325	804.092
642.453	811.467
642.581	811.025
642.710	802.650
642.838	811.958
642.966	814.617
643.094	811.283
643.222	814.108
643.350	817.775
643.478	823.758
643.606	823.325
643.735	825.758
643.863	815.667
643.991	829.575
644.119	819.192
644.247	824.708
644.375	826.233
644.503	835.242
644.631	836.583
644.760	839.683
644.888	841.250
645.016	836.700
645.144	846.567
645.272	838.933
645.400	842.917
645.528	841.917
645.656	831.950
645.785	841.783
645.913	841.808
646.041	850.325
646.169	834.867
646.297	845.383
646.425	841.742
646.553	838.050
646.681	851.125
646.810	840.358
646.938	848.908
647.066	842.283
647.194	844.150
647.322	850.733
647.450	840.408
647.578	856.975
647.706	848.875
647.835	850.375
647.963	851.150
648.091	860.292
648.219	848.892
648.347	857.525
648.475	854.217
648.603	852.767
648.731	854.517
648.860	842.492
648.988	851.908
649.116	856.400
649.244	842.142
649.372	847.467
649.500	850.392
649.628	852.392
649.756	842.567
649.885	841.783
650.013	849.817
650.141	847.617
650.269	844.108
650.397	843.717
650.525	844.483
650.653	847.150
650.781	842.517
650.910	839.625
651.038	842.900
651.166	842.317
651.294	840.908
651.422	834.883
651.550	835.325
651.678	829.033
651.806	840.533
651.935	835.225
652.063	831.633
652.191	825.300
652.319	834.250
652.447	830.225
652.575	830.583
652.703	832.358
652.831	827.842
652.960	827.433
653.088	826.850
653.216	817.725
653.344	826.100
653.472	827.600
653.600	825.408
653.728	829.075
653.856	817.625
653.985	835.167
654.113	828.292
654.241	831.750
654.369	824.708
654.497	830.900
654.625	827.892
654.753	828.325
654.881	826.008
655.010	813.600
655.138	821.800
655.266	820.558
655.394	815.383
655.522	819.642
655.650	809.517
655.778	822.542
655.906	821.992
656.035	825.542
656.163	818.458
656.291	820.975
656.419	828.942
656.547	820.617
656.675	820.050
656.803	818.025
656.931	820.625
657.060	825.008
657.188	831.200
657.316	825.433
657.444	826.717
657.572	826.858
657.700	825.450
657.828	827.942
657.956	826.025
658.085	838.333
658.213	824.675
658.341	823.900
658.469	823.925
658.597	831.242
658.725	830.225
658.853	818.683
658.981	821.375
659.110	827.458
659.238	826.717
659.366	826.692
659.494	822.750
659.622	822.367
659.750	829.083
659.878	823.958
660.006	830.308
660.135	827.300
660.263	830.517
660.391	820.942
660.519	830.075
660.647	824.642
660.775	834.483
660.903	834.658
661.031	826.000
661.160	823.467
661.288	826.967
661.416	832.792
661.544	819.592
661.672	823.258
661.800	823.150
661.928	827.108
662.056	828.158
662.185	829.117
662.313	822.092
662.441	830.800
662.569	830.258
662.697	823.967
662.825	823.900
662.953	827.975
663.081	821.717
663.210	821.258
663.338	832.750
663.466	826.142
663.594	825.075
663.722	817.683
663.850	814.217
663.978	814.200
664.106	821.500
664.235	827.825
664.363	829.767
664.491	820.642
664.619	827.375
664.747	824.775
664.875	817.583
665.003	817.175
665.131	833.000
665.260	833.733
665.388	811.567
665.516	825.183
665.644	821.625
665.772	823.533
665.900	818.875
666.028	816.142
666.156	828.592
666.285	814.567
666.413	819.658
666.541	816.667
666.669	818.425
666.797	816.867
666.925	819.458
667.053	827.583
667.181	814.167
667.310	810.800
667.438	816.892
667.566	814.350
667.694	818.225
667.822	816.825
667.950	816.542
668.078	809.725
668.206	814.550
668.335	822.192
668.463	812.100
668.591	814.083
668.719	809.833
668.847	811.250
668.975	809.442
669.103	810.183
669.231	811.392
669.360	814.675
669.488	811.533
669.616	809.008
669.744	808.525
669.872	808.808
670.000	814.858
670.128	798.400
670.256	802.733
670.385	802.133
670.513	809.667
670.641	803.292
670.769	799.975
670.897	797.758
671.025	800.708
671.153	809.917
671.281	813.158
671.410	808.108
671.538	798.308
671.666	799.567
671.794	803.942
671.922	797.983
672.050	790.175
672.178	803.242
672.306	795.883
672.435	789.558
672.563	796.267
672.691	797.033
672.819	795.733
672.947	788.217
673.075	788.175
673.203	783.950
673.331	778.992
673.460	781.200
673.588	791.133
673.716	790.342
673.844	784.675
673.972	785.408
674.100	781.717
674.228	785.442
674.356	779.350
674.485	779.433
674.613	773.042
674.741	772.633
674.869	771.917
674.997	769.200
675.125	779.550
675.253	768.767
675.381	768.958
675.510	768.367
675.638	759.933
675.766	767.475
675.894	764.558
676.022	754.208
676.150	757.575
676.278	763.533
676.406	758.408
676.535	749.975
676.663	749.708
676.791	745.600
676.919	754.983
677.047	746.967
677.175	743.908
677.303	747.875
677.431	745.175
677.560	736.808
677.688	744.558
677.816	734.042
677.944	734.800
678.072	733.525
678.200	738.092
678.328	728.933
678.456	724.717
678.585	727.483
678.713	731.425
678.841	719.100
678.969	718.875
679.097	727.325
679.225	728.200
679.353	722.517
679.481	711.150
679.610	717.550
679.738	712.342
679.866	711.258
679.994	710.458
680.122	710.158
680.250	707.100
680.378	708.217
680.506	704.450
680.635	705.625
680.763	705.383
680.891	703.067
681.019	706.900
681.147	696.258
681.275	697.117
681.403	696.950
681.531	704.192
681.660	685.067
681.788	695.258
681.916	686.167
682.044	698.467
682.172	685.750
682.300	680.900
682.428	689.042
682.556	683.567
682.685	683.450
682.813	684.317
682.941	677.667
683.069	678.217
683.197	676.592
683.325	677.467
683.453	672.483
683.581	669.158
683.710	669.658
683.838	676.358
683.966	674.917
684.094	671.383
684.222	675.667
684.350	667.925
684.478	673.775
684.606	673.117
684.735	671.233
684.863	670.042
684.991	660.925
685.119	662.183
685.247	658.450
685.375	655.975
685.503	664.625
685.631	668.175
685.760	658.550
685.888	658.692
686.016	652.667
686.144	653.942
686.272	646.992
686.400	654.850
686.528	656.333
686.656	650.917
686.785	648.142
686.913	651.217
687.041	646.683
687.169	648.250
687.297	647.733
687.425	644.125
687.553	647.858
687.681	648.725
687.810	648.133
687.938	641.233
688.066	640.142
688.194	645.075
688.322	638.992
688.450	632.475
688.578	640.200
688.706	639.417
688.835	640.208
688.963	637.900
689.091	638.817
689.219	629.992
689.347	629.750
689.475	632.417
689.603	629.175
689.731	637.425
689.860	628.458
689.988	633.275
690.116	627.150
690.244	628.692
690.372	635.242
690.500	627.108
690.628	623.125
690.756	627.525
690.885	622.633
691.013	620.650
691.141	628.383
691.269	624.983
691.397	621.483
691.525	616.433
691.653	621.117
691.781	627.567
691.910	616.817
692.038	608.325
692.166	614.600
692.294	608.925
692.422	610.558
692.550	617.167
692.678	614.492
692.806	604.342
692.935	604.833
693.063	600.842
693.191	605.442
693.319	598.783
693.447	596.733
693.575	605.058
693.703	597.850
693.831	593.625
693.960	599.450
694.088	599.767
694.216	595.992
694.344	596.125
694.472	597.725
694.600	587.333
694.728	588.417
694.856	585.167
694.985	586.600
695.113	585.875
695.241	583.075
695.369	583.050
695.497	580.067
695.625	586.075
695.753	579.567
695.881	572.708
696.010	573.392
696.138	571.583
696.266	567.825
696.394	573.142
696.522	567.950
696.650	564.542
696.778	571.400
696.906	561.167
697.035	562.875
697.163	560.467
697.291	563.692
697.419	555.783
697.547	558.842
697.675	556.283
697.803	549.692
697.931	550.608
698.060	554.033
698.188	544.175
698.316	551.133
698.444	544.875
698.572	543.658
698.700	543.517
698.828	542.450
698.956	536.550
699.085	532.233
699.213	534.675
699.341	532.433
699.469	528.567
699.597	532.917
699.725	531.817
699.853	524.042
699.981	526.358
700.110	521.617
700.238	526.458
700.366	518.783
700.494	518.742
700.622	520.683
700.750	511.375
700.878	515.892
701.006	509.383
701.135	512.550
701.263	508.358
701.391	504.442
701.519	508.950
701.647	508.067
701.775	508.900
701.903	500.992
702.031	502.267
702.160	504.175
702.288	506.383
702.416	496.883
702.544	495.950
702.672	500.017
702.800	493.858
702.928	496.900
703.056	495.875
703.185	490.908
703.313	492.508
703.441	488.883
703.569	488.867
703.697	490.992
703.825	486.183
703.953	489.575
704.081	481.625
704.210	482.900
704.338	484.100
704.466	476.933
704.594	475.300
704.722	484.325
704.850	476.400
704.978	472.975
705.106	480.375
705.235	470.108
705.363	474.250
705.491	475.342
705.619	474.700
705.747	470.475
705.875	469.117
706.003	462.967
706.131	462.192
706.260	465.608
706.388	458.683
706.516	460.817
706.644	461.408
706.772	456.725
706.900	452.158
707.028	453.058
707.156	455.550
707.285	454.250
707.413	451.417
707.541	443.083
707.669	447.433
707.797	445.792
707.925	442.767
708.053	440.267
708.181	442.200
708.310	442.533
708.438	442.708
708.566	437.650
708.694	435.383
708.822	436.833
708.950	435.642
709.078	430.192
709.206	429.667
709.335	429.342
709.463	431.242
709.591	426.033
709.719	423.833
709.847	421.533
709.975	429.608
710.103	422.967
710.231	418.608
710.360	415.758
710.488	412.642
710.616	414.308
710.744	414.392
710.872	415.792
711.000	410.017
711.128	407.033
711.256	408.733
711.385	408.525
711.513	406.317
711.641	402.192
711.769	402.383
711.897	405.067
712.025	398.233
712.153	400.208
712.281	398.000
712.410	401.200
712.538	400.725
712.666	390.133
712.794	388.067
712.922	394.958
713.050	392.367
713.178	389.000
713.306	389.792
713.435	388.333
713.563	390.517
713.691	385.342
713.819	388.825
713.947	380.458
714.075	380.942
714.203	382.925
714.331	386.633
714.460	381.117
714.588	377.792
714.716	377.575
714.844	375.300
714.972	372.908
715.100	376.625
715.228	376.550
715.356	372.817
715.485	376.275
715.613	369.667
715.741	368.775
715.869	372.608
715.997	364.042
716.125	363.892
716.253	369.300
716.381	365.733
716.510	364.592
716.638	363.783
716.766	362.817
716.894	359.308
717.022	360.633
717.150	359.042
717.278	358.850
717.406	359.033
717.535	354.417
717.663	358.100
717.791	356.533
717.919	350.883
718.047	354.500
718.175	350.408
718.303	353.067
718.431	346.767
718.560	348.567
718.688	344.208
718.816	345.992
718.944	344.025
719.072	342.067
719.200	342.425
719.328	347.342
719.456	340.367
719.585	343.667
719.713	341.642
719.841	337.917
719.969	339.000
720.097	340.875
720.225	335.533
720.353	337.742
720.481	333.150
720.610	338.783
720.738	331.992
720.866	330.625
720.994	332.442
721.122	332.908
721.250	331.425
721.378	328.117
721.506	331.033
721.635	327.600
721.763	326.050
721.891	326.175
722.019	329.358
722.147	321.683
722.275	320.258
722.403	321.783
722.531	320.108
722.660	322.417
722.788	321.917
722.916	316.133
723.044	314.225
723.172	315.175
723.300	316.042
723.428	314.758
723.556	311.325
723.685	313.658
723.813	319.042
723.941	311.967
724.069	310.683
724.197	309.708
724.325	305.167
724.453	306.800
724.581	309.308
724.710	303.758
724.838	302.400
724.966	294.900
725.094	301.408
725.222	298.333
725.350	297.450
725.478	295.408
725.606	298.017
725.735	298.058
725.863	300.517
725.991	293.033
726.119	294.175
726.247	294.825
726.375	292.058
726.503	293.833
726.631	292.342
726.760	289.558
726.888	290.633
727.016	285.883
727.144	289.225
727.272	284.200
727.400	288.683
727.528	283.792
727.656	282.792
727.785	278.458
727.913	283.650
728.041	282.925
728.169	277.867
728.297	278.233
728.425	279.792
728.553	278.425
728.681	278.933
728.810	274.617
728.938	273.108
729.066	276.075
729.194	271.150
729.322	270.925
729.450	269.617
729.578	269.458
729.706	269.525
729.835	268.475
729.963	268.925
730.091	264.808
730.219	267.158
730.347	264.608
730.475	262.133
730.603	260.675
730.731	265.908
730.860	261.850
730.988	263.433
731.116	259.125
731.244	261.958
731.372	263.517
731.500	256.517
731.628	256.700
731.756	253.933
731.885	254.858
732.013	256.617
732.141	252.383
732.269	257.150
732.397	259.367
732.525	252.525
732.653	253.217
732.781	253.608
732.910	250.633
733.038	249.150
733.166	248.575
733.294	250.833
733.422	248.050
733.550	249.242
733.678	244.850
733.806	248.208
733.935	246.708
734.063	243.792
734.191	247.450
734.319	241.642
734.447	240.200
734.575	242.008
734.703	241.633
734.831	242.958
734.960	240.958
735.088	238.992
735.216	237.775
735.344	237.408
735.472	237.442
735.600	239.175
735.728	237.267
735.856	235.833
735.985	238.142
736.113	238.917
736.241	237.292
736.369	239.350
736.497	235.342
736.625	235.450
736.753	234.583
736.881	232.042
737.010	231.308
737.138	230.467
737.266	229.208
737.394	231.533
737.522	229.033
737.650	231.675
737.778	230.508
737.906	228.025
738.035	222.625
738.163	229.242
738.291	226.125
738.419	225.767
738.547	225.733
738.675	226.842
738.803	222.658
738.931	225.033
739.060	223.558
739.188	221.917
739.316	223.133
739.444	223.358
739.572	220.692
739.700	219.250
739.828	223.025
739.956	222.742
740.085	222.067
740.213	220.667
740.341	218.017
740.469	219.883
740.597	214.800
740.725	219.058
740.853	219.700
740.981	216.467
741.110	215.325
741.238	217.975
741.366	219.000
741.494	216.533
741.622	213.733
741.750	214.683
741.878	213.767
742.006	210.942
742.135	211.425
742.263	209.108
742.391	208.767
742.519	212.033
742.647	208.575
742.775	213.642
742.903	209.300
743.031	208.700
743.160	207.508
743.288	206.925
743.416	205.942
743.544	203.967
743.672	207.833
743.800	208.692
743.928	205.442
744.056	205.950
744.185	206.275
744.313	207.183
744.441	205.983
744.569	207.708
744.697	202.717
744.825	206.767
744.953	202.417
745.081	202.442
745.210	202.708
745.338	203.083
745.466	201.658
745.594	199.725
745.722	200.100
745.850	200.775
745.978	196.475
746.106	200.417
746.235	198.825
746.363	200.867
746.491	199.808
746.619	197.025
746.747	198.150
746.875	196.233
747.003	196.183
747.131	200.042
747.260	195.467
747.388	195.192
747.516	198.333
747.644	197.775
747.772	191.717
747.900	194.108
748.028	196.975
748.156	188.850
748.285	192.783
748.413	191.350
748.541	194.975
748.669	190.283
748.797	191.992
748.925	190.475
749.053	191.658
749.181	190.983
749.310	189.592
749.438	187.950
749.566	190.192
749.694	189.300
749.822	187.633
749.950	187.408
750.078	190.983
750.206	187.833
750.335	186.975
750.463	184.317
750.591	184.633
750.719	184.692
750.847	183.942
750.975	181.350
751.103	183.242
751.231	186.217
751.360	183.350
751.488	181.792
751.616	181.400
751.744	181.000
751.872	179.292
752.000	183.075
752.128	180.192
752.256	181.767
752.385	177.217
752.513	179.033
752.641	175.250
752.769	179.458
752.897	177.775
753.025	172.308
753.153	178.900
753.281	178.342
753.410	178.075
753.538	177.617
753.666	176.908
753.794	177.717
753.922	178.275
754.050	175.450
754.178	174.392
754.306	172.667
754.435	173.575
754.563	176.908
754.691	174.275
754.819	172.042
754.947	172.833
755.075	174.367
755.203	172.458
755.331	173.392
755.460	170.433
755.588	172.000
755.716	170.008
755.844	168.208
755.972	169.308
756.100	170.217
756.228	170.467
756.356	168.858
756.485	171.217
756.613	169.475
756.741	168.342
756.869	167.817
756.997	167.725
757.125	167.308
757.253	167.067
757.381	168.183
757.510	167.867
757.638	167.792
757.766	169.267
757.894	166.108
758.022	163.492
758.150	165.142
758.278	164.700
758.406	162.442
758.535	164.608
758.663	164.583
758.791	163.333
758.919	162.108
759.047	163.342
759.175	164.608
759.303	164.017
759.431	159.483
759.560	160.033
759.688	162.317
759.816	164.142
759.944	162.008
760.072	161.758
760.200	159.808
760.328	163.125
760.456	159.408
760.585	162.458
760.713	160.375
760.841	160.133
760.969	160.375
761.097	156.542
761.225	160.942
761.353	158.100
761.481	159.600
761.610	158.917
761.738	157.133
761.866	159.342
761.994	156.308
762.122	155.900
762.250	156.617
762.378	157.550
762.506	154.875
762.635	155.333
762.763	156.375
762.891	154.325
763.019	155.708
763.147	155.975
763.275	154.133
763.403	155.158
763.531	152.508
763.660	152.608
763.788	153.400
763.916	152.000
764.044	153.692
764.172	153.175
764.300	152.175
764.428	152.458
764.556	151.800
764.685	149.858
764.813	148.683
764.941	151.142
765.069	151.067
765.197	150.858
765.325	149.283
765.453	149.842
765.581	148.833
765.710	149.783
765.838	149.867
765.966	149.325
766.094	148.850
766.222	147.858
766.350	148.908
766.478	147.083
766.606	146.008
766.735	148.758
766.863	148.092
766.991	147.292
767.119	145.492
767.247	146.850
767.375	144.900
767.503	144.675
767.631	149.575
767.760	144.450
767.888	145.158
768.016	145.117
768.144	145.750
768.272	145.292
768.400	144.450
768.528	144.708
768.656	145.142
768.785	146.342
768.913	142.167
769.041	144.150
769.169	141.467
769.297	144.242
769.425	142.125
769.553	142.433
769.681	143.875
769.810	145.433
769.938	143.283
770.066	141.350
770.194	142.908
770.322	141.292
770.450	141.808
770.578	142.133
770.706	139.883
770.835	140.483
770.963	142.592
771.091	139.542
771.219	140.825
771.347	141.242
771.475	139.958
771.603	138.708
771.731	140.158
771.860	139.125
771.988	138.275
772.116	138.525
772.244	138.642
772.372	138.092
772.500	140.375
772.628	138.367
772.756	136.933
772.885	139.342
773.013	139.575
773.141	135.875
773.269	137.358
773.397	136.708
773.525	138.050
773.653	137.650
773.781	135.283
773.910	136.158
774.038	136.058
774.166	135.308
774.294	137.500
774.422	133.833
774.550	137.217
774.678	136.392
774.806	134.408
774.935	137.008
775.063	134.433
775.191	136.217
775.319	135.917
775.447	136.142
775.575	134.683
775.703	134.467
775.831	133.475
775.960	133.958
776.088	133.600
776.216	132.883
776.344	134.475
776.472	135.050
776.600	133.075
776.728	134.117
776.856	133.842
776.985	132.558
777.113	133.800
777.241	132.925
777.369	132.633
777.497	130.075
777.625	132.608
777.753	131.592
777.881	130.750
778.010	130.967
778.138	130.458
778.266	129.300
778.394	131.308
778.522	129.233
778.650	131.492
778.778	129.675
778.906	130.583
779.035	129.700
779.163	130.467
779.291	129.333
779.419	130.508
779.547	130.650
779.675	129.233
779.803	128.508
779.931	129.458
780.060	130.200
780.188	129.167
780.316	128.475
780.444	128.708
780.572	127.283
780.700	129.392
780.828	127.550
780.956	127.283
781.085	127.900
781.213	127.425
781.341	128.100
781.469	127.025
781.597	127.900
781.725	127.108
781.853	126.092
781.981	127.467
782.110	128.375
782.238	127.417
782.366	127.283
782.494	126.117
782.622	125.667
782.750	127.500
782.878	125.892
783.006	127.458
783.135	125.092
783.263	124.733
783.391	125.033
783.519	126.192
783.647	124.183
783.775	126.458
783.903	125.767
784.031	122.583
784.160	125.200
784.288	125.100
784.416	125.142
784.544	122.858
784.672	125.500
784.800	126.267
784.928	121.642
785.056	122.992
785.185	123.242
785.313	124.000
785.441	121.925
785.569	123.500
785.697	123.725
785.825	124.058
785.953	123.742
786.081	122.400
786.210	121.775
786.338	121.533
786.466	121.508
786.594	121.633
786.722	121.725
786.850	120.958
786.978	121.817
787.106	120.225
787.235	121.833
787.363	122.983
787.491	121.508
787.619	120.600
787.747	120.775
787.875	120.400
788.003	119.517
788.131	118.958
788.260	120.958
788.388	120.017
788.516	118.617
788.644	120.558
788.772	119.808
788.900	120.200
789.028	119.133
789.156	119.958
789.285	119.550
789.413	118.458
789.541	120.158
789.669	117.883
789.797	119.350
789.925	119.500
790.053	119.308
790.181	118.783
790.310	117.875
790.438	117.883
790.566	118.542
790.694	118.183
790.822	119.042
790.950	120.050
791.078	118.958
791.206	116.883
791.335	118.033
791.463	118.183
791.591	117.583
791.719	118.133
791.847	117.200
791.975	116.733
792.103	116.158
792.231	118.467
792.360	117.358
792.488	116.250
792.616	118.625
792.744	117.492
792.872	115.517
793.000	115.758
793.128	116.717
793.256	117.133
793.385	114.883
793.513	116.833
793.641	117.042
793.769	116.917
793.897	115.900
794.025	116.492
794.153	117.125
794.281	116.467
794.410	115.125
794.538	115.508
794.666	115.600
794.794	115.350
794.922	114.442
795.050	114.750
795.178	115.025
795.306	114.475
795.435	114.317
795.563	114.283
795.691	114.158
795.819	114.100
795.947	115.467
796.075	114.467
796.203	115.183
796.331	114.342
796.460	114.258
796.588	114.308
796.716	114.892
796.844	114.442
796.972	115.317
797.100	112.817
797.228	113.550
797.356	114.200
797.485	114.292
797.613	114.017
797.741	112.508
797.869	113.250
797.997	113.575
798.125	113.908
798.253	112.992
798.381	114.242
798.510	111.842
798.638	112.383
798.766	112.825
798.894	112.792
799.022	112.258
799.150	112.367
799.278	112.825
799.406	112.750
799.535	111.467
799.663	112.817
799.791	111.508
799.919	111.367
800.047	113.083
800.175	113.325
800.303	112.325
800.431	112.033
800.560	112.083
800.688	111.775
800.816	111.925
800.944	111.733
801.072	111.833
801.200	112.217
801.328	111.250
801.456	112.083
801.585	112.175
801.713	111.892
801.841	112.408
801.969	112.217
802.097	111.808
802.225	111.808
802.353	111.575
802.481	111.500
802.610	111.683
802.738	111.017
802.866	111.183
802.994	110.250
803.122	111.075
803.250	112.333
803.378	111.533
803.506	111.008
803.635	111.767
803.763	111.008
803.891	111.008
804.019	111.208
804.147	111.067
804.275	110.125
804.403	109.883
804.531	110.233
804.660	110.350
804.788	110.717
804.916	109.842
805.044	109.283
805.172	111.058
805.300	108.642
805.428	109.967
805.556	109.650
805.685	110.708
805.813	111.042
805.941	110.150
806.069	110.583
806.197	111.233
806.325	108.908
806.453	110.125
806.581	109.917
806.710	108.933
806.838	108.325
806.966	109.800
807.094	110.183
807.222	109.742
807.350	110.158
807.478	109.317
807.606	109.233
807.735	109.492
807.863	110.925
807.991	109.275
808.119	109.700
808.247	109.050
808.375	109.683
808.503	108.333
808.631	109.800
808.760	109.658
808.888	108.525
809.016	109.658
809.144	109.758
809.272	111.075
809.400	109.567
809.528	109.650
809.656	107.867
809.785	108.042
809.913	108.175
810.041	109.750
810.169	108.525
810.297	109.375
810.425	109.108
810.553	107.675
810.681	108.383
810.810	109.208
810.938	108.833
811.066	108.150
811.194	106.942
811.322	108.383
811.450	109.175
811.578	109.658
811.706	109.117
811.835	108.258
811.963	108.175
812.091	108.633
812.219	108.975
812.347	108.275
812.475	108.600
812.603	107.908
812.731	107.008
812.860	107.942
812.988	108.367
813.116	107.583
813.244	107.942
813.372	107.350
813.500	108.300
813.628	109.192
813.756	107.717
813.885	108.108
814.013	107.808
814.141	108.242
814.269	106.958
814.397	107.692
814.525	107.442
814.653	107.525
814.781	107.825
814.910	107.175
815.038	107.592
815.166	108.125
815.294	107.283
815.422	107.908
815.550	106.983
815.678	107.175
815.806	107.258
815.935	106.725
816.063	106.517
816.191	107.083
816.319	107.350
816.447	107.750
816.575	107.300
816.703	106.717
816.831	107.508
816.960	107.908
817.088	106.783
817.216	106.292
817.344	107.833
817.472	107.742
817.600	106.583
817.728	106.150
817.856	106.375
817.985	106.625
818.113	107.558
818.241	107.233
818.369	106.525
818.497	107.525
818.625	107.183
818.753	106.100
818.881	107.867
819.010	107.600
819.138	106.000
819.266	107.367
819.394	106.475
819.522	105.983
819.650	108.133
819.778	106.583
819.906	106.100
820.035	106.400
820.163	106.983
820.291	104.892
820.419	105.575
820.547	107.600
820.675	104.992
820.803	106.525
820.931	106.917
821.060	104.992
821.188	106.775
821.316	106.567
821.444	106.658
821.572	105.733
821.700	106.158
821.828	106.908
821.956	105.983
822.085	105.625
822.213	106.850
822.341	105.750
822.469	105.433
822.597	105.600
822.725	105.150
822.853	105.700
822.981	105.242
823.110	106.942
823.238	104.767
823.366	106.100
823.494	104.508
823.622	104.833
823.750	106.558
823.878	103.917
824.006	106.042
824.135	106.042
824.263	106.183
824.391	105.150
824.519	106.492
824.647	106.108
824.775	106.542
824.903	107.267
825.031	106.325
825.160	106.150
825.288	105.783
825.416	105.458
825.544	106.292
825.672	106.925
825.800	106.433
825.928	106.525
826.056	106.008
826.185	104.992
826.313	105.750
826.441	105.267
826.569	105.100
826.697	106.250
826.825	105.217
826.953	106.608
827.081	104.417
827.210	105.483
827.338	103.642
827.466	104.817
827.594	105.808
827.722	106.492
827.850	105.483
827.978	104.058
828.106	104.667
828.235	106.275
828.363	106.208
828.491	105.492
828.619	105.500
828.747	105.133
828.875	105.133
829.003	105.675
829.131	107.133
829.260	106.292
829.388	105.533
829.516	105.583
829.644	105.075
829.772	105.842
829.900	105.500
830.028	105.308
830.156	105.208
830.285	104.992
830.413	105.600
830.541	104.958
830.669	105.125
830.797	104.883
830.925	104.933
831.053	103.767
831.181	105.175
831.310	105.425
831.438	104.967
831.566	105.850
831.694	105.342
831.822	103.842
831.950	104.850
832.078	105.283
832.206	104.508
832.335	103.900
832.463	105.850
832.591	105.100
832.719	104.417
832.847	104.658
832.975	104.283
833.103	104.700
833.231	104.733
833.360	105.067
833.488	104.217
833.616	104.333
833.744	104.267
833.872	105.608
834.000	105.575
834.128	104.608
834.256	103.967
834.385	104.200
834.513	105.350
834.641	103.308
834.769	104.542
834.897	105.375
835.025	103.900
835.153	103.958
835.281	104.450
835.410	104.883
835.538	104.667
835.666	104.142
835.794	105.692
835.922	104.942
836.050	104.317
836.178	104.517
836.306	104.642
836.435	103.867
836.563	104.400
836.691	105.108
836.819	105.808
836.947	103.800
837.075	104.592
837.203	103.492
837.331	104.558
837.460	105.367
837.588	104.258
837.716	104.408
837.844	105.067
837.972	104.350
838.100	105.000
838.228	105.025
838.356	103.400
838.485	103.575
838.613	103.992
838.741	104.158
838.869	104.175
838.997	104.992
839.125	102.775
839.253	103.242
839.381	104.742
839.510	104.167
839.638	104.275
839.766	103.425
839.894	104.617
840.022	104.908
840.150	104.633
840.278	103.875
840.406	104.658
840.535	104.158
840.663	103.583
840.791	103.483
840.919	104.658
841.047	104.408
841.175	104.217
841.303	104.342
841.431	103.858
841.560	104.592
841.688	103.775
841.816	104.208
841.944	104.117
842.072	104.300
842.200	104.458
842.328	104.708
842.456	104.058
842.585	104.683
842.713	104.375
842.841	104.092
842.969	104.867
843.097	104.333
843.225	104.342
843.353	103.958
843.481	103.617
843.610	104.083
843.738	103.217
843.866	104.917
