90-90-0_at_679.99nm_cut_at_1250.00Y_01.dat
24.01.2024
13:28:25
cut middle at Y: 1250.00
top cursor: 1310 down cursor: 1190 mean of: 120 lines , 2560 datapoints
wavelength(nm)	intensity[arb. units]
515.994	251.108
516.122	248.033
516.250	245.367
516.378	242.600
516.506	242.442
516.635	240.300
516.763	245.358
516.891	244.783
517.019	245.467
517.147	245.800
517.275	247.925
517.403	243.958
517.531	247.383
517.660	247.342
517.788	246.075
517.916	247.392
518.044	245.575
518.172	248.358
518.300	249.092
518.428	250.333
518.556	248.583
518.685	249.575
518.813	253.650
518.941	249.500
519.069	251.017
519.197	252.533
519.325	252.750
519.453	252.992
519.581	256.425
519.710	251.167
519.838	255.108
519.966	252.425
520.094	254.283
520.222	257.075
520.350	255.883
520.478	259.458
520.606	254.758
520.735	259.758
520.863	259.625
520.991	259.933
521.119	257.517
521.247	259.500
521.375	261.067
521.503	264.033
521.631	262.542
521.760	263.867
521.888	265.283
522.016	264.942
522.144	267.100
522.272	268.058
522.400	265.858
522.528	270.508
522.656	265.600
522.785	270.742
522.913	267.975
523.041	265.408
523.169	266.817
523.297	268.200
523.425	272.458
523.553	269.950
523.681	267.833
523.810	270.133
523.938	272.433
524.066	273.533
524.194	272.900
524.322	272.675
524.450	271.500
524.578	274.942
524.706	273.058
524.835	272.450
524.963	275.117
525.091	274.508
525.219	274.358
525.347	269.225
525.475	270.992
525.603	272.842
525.731	276.867
525.860	274.608
525.988	272.025
526.116	275.700
526.244	272.033
526.372	272.758
526.500	273.075
526.628	278.642
526.756	277.075
526.885	277.100
527.013	273.200
527.141	279.750
527.269	278.083
527.397	276.625
527.525	276.875
527.653	276.983
527.781	271.942
527.910	278.967
528.038	279.117
528.166	279.817
528.294	279.950
528.422	277.458
528.550	279.442
528.678	279.558
528.806	281.458
528.935	282.625
529.063	280.050
529.191	284.942
529.319	282.808
529.447	284.517
529.575	285.050
529.703	286.325
529.831	283.858
529.960	280.567
530.088	282.275
530.216	287.267
530.344	278.800
530.472	284.317
530.600	286.875
530.728	284.842
530.856	286.800
530.985	284.608
531.113	285.450
531.241	287.308
531.369	287.017
531.497	287.225
531.625	285.542
531.753	286.325
531.881	289.233
532.010	288.458
532.138	287.333
532.266	282.367
532.394	285.992
532.522	285.683
532.650	287.300
532.778	287.600
532.906	285.542
533.035	288.292
533.163	285.775
533.291	287.375
533.419	286.217
533.547	286.258
533.675	287.208
533.803	289.442
533.931	286.742
534.060	287.692
534.188	292.192
534.316	291.800
534.444	287.333
534.572	289.650
534.700	291.492
534.828	291.825
534.956	287.275
535.085	288.183
535.213	288.675
535.341	290.383
535.469	289.500
535.597	294.575
535.725	299.175
535.853	292.942
535.981	295.583
536.110	297.058
536.238	298.408
536.366	296.083
536.494	297.583
536.622	299.250
536.750	297.842
536.878	298.650
537.006	301.042
537.135	303.508
537.263	303.867
537.391	302.158
537.519	304.017
537.647	301.925
537.775	303.725
537.903	304.850
538.031	305.633
538.160	303.225
538.288	307.833
538.416	308.258
538.544	303.367
538.672	310.008
538.800	306.108
538.928	307.967
539.056	310.650
539.185	308.308
539.313	307.808
539.441	314.275
539.569	312.833
539.697	309.158
539.825	312.467
539.953	305.242
540.081	310.850
540.210	311.517
540.338	310.017
540.466	310.617
540.594	314.850
540.722	309.967
540.850	312.542
540.978	308.450
541.106	314.183
541.235	314.025
541.363	312.642
541.491	313.267
541.619	314.050
541.747	312.667
541.875	311.983
542.003	314.392
542.131	313.950
542.260	316.333
542.388	313.000
542.516	312.875
542.644	314.892
542.772	315.567
542.900	315.025
543.028	318.117
543.156	315.442
543.285	318.608
543.413	314.658
543.541	315.567
543.669	319.783
543.797	320.375
543.925	313.583
544.053	322.975
544.181	316.917
544.310	312.892
544.438	313.208
544.566	321.475
544.694	320.508
544.822	318.792
544.950	319.783
545.078	321.400
545.206	317.158
545.335	312.542
545.463	316.258
545.591	315.658
545.719	319.117
545.847	315.242
545.975	324.017
546.103	319.100
546.231	317.433
546.360	318.675
546.488	320.508
546.616	320.000
546.744	320.908
546.872	317.492
547.000	321.150
547.128	323.008
547.256	319.992
547.385	321.725
547.513	315.058
547.641	321.550
547.769	321.500
547.897	319.467
548.025	319.125
548.153	321.017
548.281	322.108
548.410	329.825
548.538	321.450
548.666	322.125
548.794	323.825
548.922	323.175
549.050	327.308
549.178	323.442
549.306	322.225
549.435	327.508
549.563	324.208
549.691	322.458
549.819	325.817
549.947	331.508
550.075	322.100
550.203	324.900
550.331	325.425
550.460	324.458
550.588	326.467
550.716	323.850
550.844	320.575
550.972	327.917
551.100	325.992
551.228	326.283
551.356	323.458
551.485	328.517
551.613	324.667
551.741	324.467
551.869	324.275
551.997	324.792
552.125	323.417
552.253	327.967
552.381	317.483
552.510	324.883
552.638	327.367
552.766	328.358
552.894	321.775
553.022	324.050
553.150	322.292
553.278	324.625
553.406	322.400
553.535	323.683
553.663	323.925
553.791	319.442
553.919	321.692
554.047	320.533
554.175	320.208
554.303	318.517
554.431	316.725
554.560	325.525
554.688	322.242
554.816	322.517
554.944	321.958
555.072	320.217
555.200	324.158
555.328	320.333
555.456	321.275
555.585	323.033
555.713	322.217
555.841	323.883
555.969	322.325
556.097	324.067
556.225	322.133
556.353	326.750
556.481	321.908
556.610	329.342
556.738	326.717
556.866	326.050
556.994	324.725
557.122	327.225
557.250	331.067
557.378	329.958
557.506	329.433
557.635	326.083
557.763	325.267
557.891	325.275
558.019	327.917
558.147	328.517
558.275	325.442
558.403	331.017
558.531	327.533
558.660	328.017
558.788	328.550
558.916	329.575
559.044	324.383
559.172	328.175
559.300	327.817
559.428	328.617
559.556	330.267
559.685	326.708
559.813	329.367
559.941	331.442
560.069	328.242
560.197	332.000
560.325	327.667
560.453	327.292
560.581	334.558
560.710	325.717
560.838	332.517
560.966	327.100
561.094	329.517
561.222	331.742
561.350	325.317
561.478	328.092
561.606	329.442
561.735	327.000
561.863	328.892
561.991	328.783
562.119	322.592
562.247	327.750
562.375	330.642
562.503	330.767
562.631	331.367
562.760	328.817
562.888	328.867
563.016	324.625
563.144	329.542
563.272	331.567
563.400	327.517
563.528	331.250
563.656	329.092
563.785	325.658
563.913	328.667
564.041	325.492
564.169	327.017
564.297	330.642
564.425	328.617
564.553	334.833
564.681	331.333
564.810	333.192
564.938	328.583
565.066	329.875
565.194	337.017
565.322	335.808
565.450	333.008
565.578	335.500
565.706	329.583
565.835	335.450
565.963	331.350
566.091	332.850
566.219	335.433
566.347	334.825
566.475	335.317
566.603	336.775
566.731	334.783
566.860	339.508
566.988	335.142
567.116	340.383
567.244	337.350
567.372	339.767
567.500	340.525
567.628	344.167
567.756	340.592
567.885	340.242
568.013	341.858
568.141	344.367
568.269	345.500
568.397	342.300
568.525	342.992
568.653	343.617
568.781	344.658
568.910	345.633
569.038	346.575
569.166	345.242
569.294	344.350
569.422	346.183
569.550	345.808
569.678	349.808
569.806	348.900
569.935	351.033
570.063	351.642
570.191	355.108
570.319	348.283
570.447	356.050
570.575	355.542
570.703	353.633
570.831	352.025
570.960	353.742
571.088	353.867
571.216	353.908
571.344	350.700
571.472	354.733
571.600	361.442
571.728	352.667
571.856	358.117
571.985	353.067
572.113	357.358
572.241	355.933
572.369	361.217
572.497	359.717
572.625	361.117
572.753	358.308
572.881	359.033
573.010	361.117
573.138	363.925
573.266	365.250
573.394	362.233
573.522	366.183
573.650	361.958
573.778	364.008
573.906	362.817
574.035	364.767
574.163	361.250
574.291	362.008
574.419	367.942
574.547	366.475
574.675	364.417
574.803	365.767
574.931	363.175
575.060	372.275
575.188	368.925
575.316	370.292
575.444	367.067
575.572	368.717
575.700	367.058
575.828	374.175
575.956	365.825
576.085	370.442
576.213	373.333
576.341	368.092
576.469	369.758
576.597	367.317
576.725	369.125
576.853	371.558
576.981	369.925
577.110	369.983
577.238	373.025
577.366	370.842
577.494	368.967
577.622	370.533
577.750	369.258
577.878	370.725
578.006	373.983
578.135	374.492
578.263	371.325
578.391	372.208
578.519	374.467
578.647	374.292
578.775	374.267
578.903	371.533
579.031	378.875
579.160	377.942
579.288	377.250
579.416	379.458
579.544	373.508
579.672	371.992
579.800	376.908
579.928	376.842
580.056	377.317
580.185	375.642
580.313	380.258
580.441	380.750
580.569	376.292
580.697	378.642
580.825	384.675
580.953	381.108
581.081	384.025
581.210	384.342
581.338	389.067
581.466	387.750
581.594	384.958
581.722	384.875
581.850	382.950
581.978	383.242
582.106	383.875
582.235	394.450
582.363	389.125
582.491	390.233
582.619	388.850
582.747	391.108
582.875	393.533
583.003	397.258
583.131	398.775
583.260	395.542
583.388	397.858
583.516	401.817
583.644	399.775
583.772	403.542
583.900	399.575
584.028	402.817
584.156	406.242
584.285	407.142
584.413	404.633
584.541	415.000
584.669	409.550
584.797	409.167
584.925	406.483
585.053	415.667
585.181	413.033
585.310	409.975
585.438	416.042
585.566	411.975
585.694	420.842
585.822	419.233
585.950	420.958
586.078	424.383
586.206	428.233
586.335	424.225
586.463	425.642
586.591	429.008
586.719	425.075
586.847	421.858
586.975	427.208
587.103	433.592
587.231	426.317
587.360	430.533
587.488	433.033
587.616	430.833
587.744	438.725
587.872	435.608
588.000	435.525
588.128	435.083
588.256	434.425
588.385	436.258
588.513	433.142
588.641	441.742
588.769	441.283
588.897	433.967
589.025	439.167
589.153	441.633
589.281	436.258
589.410	444.575
589.538	440.783
589.666	443.550
589.794	441.017
589.922	445.667
590.050	443.500
590.178	442.433
590.306	439.900
590.435	444.500
590.563	446.258
590.691	441.267
590.819	445.550
590.947	451.725
591.075	449.200
591.203	451.575
591.331	450.983
591.460	454.142
591.588	450.125
591.716	453.158
591.844	449.958
591.972	459.900
592.100	458.042
592.228	453.592
592.356	459.258
592.485	454.833
592.613	458.308
592.741	457.692
592.869	457.350
592.997	460.583
593.125	463.800
593.253	464.275
593.381	466.625
593.510	466.492
593.638	464.408
593.766	469.758
593.894	468.125
594.022	466.250
594.150	471.650
594.278	474.192
594.406	470.767
594.535	474.983
594.663	478.850
594.791	474.733
594.919	470.392
595.047	477.500
595.175	476.042
595.303	477.400
595.431	478.908
595.560	485.667
595.688	482.025
595.816	484.433
595.944	489.383
596.072	490.208
596.200	490.700
596.328	488.142
596.456	497.792
596.585	488.558
596.713	500.542
596.841	497.025
596.969	495.592
597.097	496.325
597.225	503.950
597.353	505.217
597.481	504.858
597.610	503.500
597.738	500.308
597.866	499.500
597.994	509.758
598.122	514.025
598.250	502.592
598.378	509.958
598.506	507.450
598.635	512.142
598.763	517.758
598.891	517.942
599.019	519.342
599.147	511.367
599.275	519.792
599.403	514.592
599.531	519.167
599.660	521.550
599.788	522.225
599.916	518.850
600.044	516.642
600.172	525.450
600.300	526.650
600.428	519.933
600.556	531.517
600.685	524.417
600.813	530.217
600.941	540.717
601.069	533.725
601.197	537.125
601.325	533.300
601.453	532.408
601.581	544.708
601.710	543.408
601.838	547.767
601.966	545.533
602.094	546.125
602.222	546.117
602.350	546.317
602.478	541.783
602.606	557.183
602.735	551.392
602.863	560.550
602.991	561.458
603.119	564.350
603.247	558.700
603.375	559.425
603.503	562.900
603.631	567.850
603.760	573.308
603.888	575.583
604.016	573.750
604.144	574.500
604.272	575.517
604.400	578.667
604.528	573.542
604.656	580.675
604.785	579.333
604.913	583.475
605.041	590.608
605.169	588.633
605.297	592.750
605.425	585.692
605.553	595.958
605.681	592.383
605.810	598.342
605.938	599.117
606.066	600.692
606.194	601.108
606.322	598.258
606.450	612.258
606.578	607.717
606.706	604.858
606.835	612.033
606.963	609.700
607.091	610.175
607.219	615.583
607.347	609.875
607.475	619.208
607.603	616.600
607.731	617.917
607.860	615.617
607.988	617.033
608.116	618.958
608.244	622.150
608.372	627.500
608.500	622.700
608.628	623.375
608.756	626.675
608.885	626.850
609.013	633.683
609.141	626.692
609.269	636.733
609.397	629.083
609.525	640.025
609.653	640.450
609.781	641.367
609.910	634.558
610.038	633.350
610.166	637.083
610.294	640.508
610.422	649.617
610.550	640.308
610.678	644.292
610.806	655.583
610.935	652.583
611.063	655.658
611.191	651.650
611.319	647.525
611.447	653.600
611.575	654.325
611.703	651.908
611.831	649.542
611.960	659.117
612.088	657.700
612.216	663.017
612.344	663.700
612.472	660.875
612.600	669.167
612.728	656.025
612.856	669.133
612.985	671.117
613.113	667.083
613.241	671.325
613.369	672.183
613.497	678.108
613.625	677.275
613.753	675.583
613.881	669.383
614.010	677.175
614.138	678.383
614.266	677.208
614.394	677.117
614.522	681.342
614.650	688.817
614.778	687.058
614.906	685.308
615.035	688.017
615.163	684.817
615.291	687.225
615.419	691.125
615.547	688.192
615.675	699.575
615.803	703.275
615.931	705.775
616.060	704.817
616.188	709.858
616.316	703.450
616.444	708.533
616.572	710.508
616.700	710.592
616.828	719.858
616.956	720.692
617.085	728.050
617.213	736.650
617.341	720.008
617.469	732.583
617.597	735.267
617.725	726.483
617.853	732.667
617.981	740.283
618.110	733.683
618.238	741.583
618.366	747.358
618.494	751.217
618.622	746.808
618.750	747.550
618.878	752.650
619.006	757.758
619.135	757.450
619.263	766.908
619.391	767.058
619.519	770.067
619.647	776.175
619.775	778.333
619.903	778.858
620.031	783.017
620.160	783.900
620.288	779.892
620.416	795.150
620.544	793.175
620.672	796.150
620.800	802.592
620.928	799.642
621.056	799.375
621.185	800.717
621.313	809.283
621.441	815.992
621.569	820.867
621.697	817.825
621.825	831.792
621.953	827.275
622.081	829.533
622.210	831.192
622.338	836.292
622.466	832.475
622.594	838.475
622.722	850.917
622.850	842.775
622.978	848.608
623.106	847.617
623.235	860.192
623.363	854.725
623.491	864.700
623.619	857.233
623.747	860.825
623.875	870.683
624.003	862.467
624.131	873.675
624.260	866.983
624.388	882.292
624.516	885.658
624.644	875.808
624.772	876.658
624.900	895.117
625.028	884.233
625.156	900.750
625.285	889.342
625.413	891.742
625.541	894.475
625.669	900.917
625.797	898.283
625.925	904.008
626.053	899.417
626.181	913.608
626.310	907.058
626.438	907.758
626.566	906.183
626.694	918.667
626.822	921.242
626.950	919.975
627.078	921.492
627.206	930.483
627.335	935.000
627.463	930.858
627.591	941.925
627.719	939.242
627.847	946.383
627.975	942.225
628.103	943.367
628.231	946.475
628.360	943.825
628.488	953.633
628.616	950.767
628.744	953.692
628.872	952.733
629.000	958.308
629.128	966.617
629.256	977.475
629.385	976.642
629.513	975.333
629.641	973.225
629.769	969.917
629.897	976.892
630.025	982.817
630.153	993.750
630.281	988.767
630.410	987.567
630.538	997.350
630.666	1000.283
630.794	996.250
630.922	997.967
631.050	999.383
631.178	999.150
631.306	1006.767
631.435	1015.033
631.563	1012.575
631.691	1008.525
631.819	1023.458
631.947	1013.767
632.075	1030.817
632.203	1026.400
632.331	1026.983
632.460	1029.350
632.588	1033.725
632.716	1038.800
632.844	1027.483
632.972	1046.625
633.100	1043.483
633.228	1049.467
633.356	1046.933
633.485	1051.967
633.613	1058.292
633.741	1052.333
633.869	1063.083
633.997	1062.917
634.125	1063.850
634.253	1058.075
634.381	1065.100
634.510	1071.642
634.638	1065.300
634.766	1068.117
634.894	1075.875
635.022	1071.067
635.150	1085.483
635.278	1099.808
635.406	1093.433
635.535	1089.667
635.663	1097.933
635.791	1090.483
635.919	1101.700
636.047	1104.217
636.175	1096.925
636.303	1115.250
636.431	1110.575
636.560	1111.367
636.688	1115.125
636.816	1114.008
636.944	1113.967
637.072	1125.142
637.200	1121.550
637.328	1126.983
637.456	1129.875
637.585	1134.758
637.713	1135.750
637.841	1137.992
637.969	1130.783
638.097	1140.883
638.225	1150.758
638.353	1160.400
638.481	1156.508
638.610	1168.800
638.738	1158.000
638.866	1152.533
638.994	1163.567
639.122	1162.600
639.250	1173.683
639.378	1170.358
639.506	1174.133
639.635	1177.475
639.763	1175.558
639.891	1188.008
640.019	1187.625
640.147	1188.533
640.275	1195.750
640.403	1193.358
640.531	1196.033
640.660	1191.858
640.788	1204.442
640.916	1205.300
641.044	1224.258
641.172	1212.833
641.300	1226.733
641.428	1219.742
641.556	1229.742
641.685	1225.208
641.813	1228.392
641.941	1241.717
642.069	1242.108
642.197	1239.033
642.325	1245.500
642.453	1257.592
642.581	1265.842
642.710	1258.808
642.838	1264.525
642.966	1258.892
643.094	1255.608
643.222	1278.633
643.350	1275.600
643.478	1289.867
643.606	1289.408
643.735	1285.967
643.863	1283.358
643.991	1308.600
644.119	1304.183
644.247	1301.067
644.375	1308.433
644.503	1314.933
644.631	1313.467
644.760	1322.708
644.888	1326.158
645.016	1336.533
645.144	1343.467
645.272	1332.333
645.400	1342.017
645.528	1345.567
645.656	1341.167
645.785	1353.433
645.913	1354.933
646.041	1360.675
646.169	1341.383
646.297	1352.867
646.425	1362.092
646.553	1350.708
646.681	1360.400
646.810	1361.750
646.938	1378.058
647.066	1363.383
647.194	1372.767
647.322	1368.025
647.450	1367.542
647.578	1397.850
647.706	1377.092
647.835	1392.733
647.963	1390.750
648.091	1405.108
648.219	1390.108
648.347	1393.325
648.475	1399.950
648.603	1398.675
648.731	1406.383
648.860	1391.967
648.988	1417.433
649.116	1410.950
649.244	1400.075
649.372	1403.500
649.500	1409.492
649.628	1416.692
649.756	1414.575
649.885	1407.025
650.013	1412.717
650.141	1414.100
650.269	1408.792
650.397	1416.975
650.525	1409.267
650.653	1427.792
650.781	1414.300
650.910	1412.708
651.038	1413.825
651.166	1422.408
651.294	1419.158
651.422	1422.542
651.550	1410.992
651.678	1417.242
651.806	1409.758
651.935	1415.425
652.063	1411.033
652.191	1412.142
652.319	1415.767
652.447	1414.683
652.575	1415.667
652.703	1415.933
652.831	1414.058
652.960	1405.717
653.088	1409.458
653.216	1405.483
653.344	1411.108
653.472	1417.883
653.600	1420.925
653.728	1418.083
653.856	1416.850
653.985	1427.308
654.113	1420.267
654.241	1432.033
654.369	1419.692
654.497	1431.625
654.625	1424.658
654.753	1433.575
654.881	1431.017
655.010	1435.417
655.138	1431.692
655.266	1428.142
655.394	1420.633
655.522	1430.725
655.650	1411.467
655.778	1429.792
655.906	1432.375
656.035	1434.975
656.163	1435.617
656.291	1444.392
656.419	1440.783
656.547	1446.608
656.675	1428.817
656.803	1450.567
656.931	1445.542
657.060	1448.658
657.188	1453.450
657.316	1458.600
657.444	1454.892
657.572	1456.000
657.700	1451.408
657.828	1454.133
657.956	1456.358
658.085	1470.933
658.213	1454.975
658.341	1446.433
658.469	1458.283
658.597	1471.275
658.725	1471.833
658.853	1457.875
658.981	1458.708
659.110	1472.217
659.238	1461.250
659.366	1473.392
659.494	1464.050
659.622	1465.058
659.750	1464.783
659.878	1473.942
660.006	1473.258
660.135	1477.367
660.263	1480.717
660.391	1469.067
660.519	1478.125
660.647	1474.942
660.775	1484.825
660.903	1464.608
661.031	1470.225
661.160	1476.083
661.288	1483.350
661.416	1491.875
661.544	1485.617
661.672	1472.975
661.800	1486.442
661.928	1483.625
662.056	1471.767
662.185	1491.267
662.313	1483.625
662.441	1491.050
662.569	1488.617
662.697	1497.183
662.825	1490.533
662.953	1500.658
663.081	1485.650
663.210	1493.700
663.338	1499.758
663.466	1490.533
663.594	1480.908
663.722	1483.625
663.850	1483.183
663.978	1480.175
664.106	1492.708
664.235	1495.308
664.363	1507.442
664.491	1495.517
664.619	1504.208
664.747	1508.467
664.875	1492.050
665.003	1494.133
665.131	1506.692
665.260	1495.958
665.388	1493.142
665.516	1497.808
665.644	1487.950
665.772	1501.167
665.900	1506.900
666.028	1505.950
666.156	1499.067
666.285	1504.550
666.413	1509.792
666.541	1499.067
666.669	1499.517
666.797	1510.425
666.925	1506.383
667.053	1508.708
667.181	1496.992
667.310	1489.258
667.438	1486.533
667.566	1493.283
667.694	1495.217
667.822	1498.108
667.950	1492.217
668.078	1491.608
668.206	1496.442
668.335	1503.792
668.463	1505.367
668.591	1495.442
668.719	1497.167
668.847	1489.908
668.975	1490.642
669.103	1497.292
669.231	1498.342
669.360	1503.742
669.488	1507.067
669.616	1490.842
669.744	1491.192
669.872	1490.675
670.000	1515.192
670.128	1479.325
670.256	1486.608
670.385	1498.633
670.513	1504.225
670.641	1476.108
670.769	1486.583
670.897	1471.317
671.025	1477.625
671.153	1490.825
671.281	1499.892
671.410	1487.650
671.538	1486.875
671.666	1483.158
671.794	1484.067
671.922	1481.742
672.050	1473.550
672.178	1489.942
672.306	1470.333
672.435	1476.350
672.563	1482.883
672.691	1480.358
672.819	1478.683
672.947	1475.758
673.075	1462.483
673.203	1471.542
673.331	1466.233
673.460	1460.342
673.588	1464.233
673.716	1477.292
673.844	1454.892
673.972	1470.133
674.100	1458.117
674.228	1463.117
674.356	1448.908
674.485	1459.908
674.613	1429.075
674.741	1444.842
674.869	1449.692
674.997	1434.417
675.125	1434.633
675.253	1427.442
675.381	1432.150
675.510	1423.250
675.638	1424.392
675.766	1423.342
675.894	1426.683
676.022	1415.133
676.150	1404.733
676.278	1419.975
676.406	1415.000
676.535	1404.842
676.663	1407.217
676.791	1401.275
676.919	1393.333
677.047	1404.483
677.175	1389.208
677.303	1389.333
677.431	1395.108
677.560	1380.608
677.688	1380.125
677.816	1367.767
677.944	1369.408
678.072	1364.833
678.200	1370.908
678.328	1352.708
678.456	1356.183
678.585	1352.200
678.713	1347.392
678.841	1347.533
678.969	1347.492
679.097	1335.675
679.225	1352.133
679.353	1344.700
679.481	1327.292
679.610	1348.192
679.738	1329.917
679.866	1326.608
679.994	1325.075
680.122	1325.550
680.250	1313.158
680.378	1321.575
680.506	1308.492
680.635	1309.400
680.763	1306.192
680.891	1303.317
681.019	1307.292
681.147	1289.600
681.275	1285.175
681.403	1287.308
681.531	1295.808
681.660	1292.275
681.788	1273.650
681.916	1264.850
682.044	1285.025
682.172	1261.400
682.300	1264.842
682.428	1269.658
682.556	1256.842
682.685	1276.875
682.813	1262.383
682.941	1256.133
683.069	1244.692
683.197	1252.958
683.325	1259.975
683.453	1251.100
683.581	1228.042
683.710	1240.458
683.838	1240.067
683.966	1236.167
684.094	1232.533
684.222	1237.858
684.350	1220.875
684.478	1231.058
684.606	1228.050
684.735	1231.450
684.863	1227.150
684.991	1218.533
685.119	1215.600
685.247	1206.308
685.375	1201.292
685.503	1217.750
685.631	1215.850
685.760	1206.267
685.888	1206.100
686.016	1192.625
686.144	1192.125
686.272	1197.008
686.400	1196.083
686.528	1188.992
686.656	1194.508
686.785	1170.983
686.913	1190.708
687.041	1180.425
687.169	1181.092
687.297	1182.300
687.425	1167.733
687.553	1166.575
687.681	1165.975
687.810	1177.408
687.938	1157.025
688.066	1164.408
688.194	1167.750
688.322	1161.075
688.450	1148.867
688.578	1157.133
688.706	1151.433
688.835	1150.967
688.963	1156.133
689.091	1150.625
689.219	1140.400
689.347	1127.317
689.475	1137.700
689.603	1131.467
689.731	1130.808
689.860	1134.933
689.988	1132.600
690.116	1132.600
690.244	1129.508
690.372	1116.642
690.500	1120.000
690.628	1115.192
690.756	1115.933
690.885	1120.158
691.013	1108.858
691.141	1103.700
691.269	1101.258
691.397	1105.033
691.525	1102.275
691.653	1102.258
691.781	1096.233
691.910	1095.033
692.038	1089.200
692.166	1086.150
692.294	1080.617
692.422	1079.025
692.550	1080.800
692.678	1070.775
692.806	1067.258
692.935	1067.700
693.063	1057.633
693.191	1055.283
693.319	1057.858
693.447	1046.917
693.575	1048.300
693.703	1039.817
693.831	1048.667
693.960	1040.900
694.088	1038.817
694.216	1032.800
694.344	1029.550
694.472	1029.567
694.600	1025.983
694.728	1016.200
694.856	1017.733
694.985	1018.350
695.113	1005.225
695.241	1007.592
695.369	1010.842
695.497	1004.808
695.625	996.158
695.753	994.975
695.881	987.900
696.010	985.992
696.138	983.183
696.266	977.375
696.394	972.233
696.522	963.550
696.650	964.367
696.778	964.325
696.906	960.817
697.035	961.075
697.163	946.450
697.291	947.400
697.419	939.275
697.547	934.717
697.675	933.675
697.803	935.742
697.931	928.942
698.060	922.033
698.188	923.417
698.316	915.883
698.444	909.333
698.572	907.683
698.700	905.508
698.828	900.917
698.956	888.033
699.085	886.883
699.213	889.267
699.341	884.167
699.469	879.725
699.597	883.733
699.725	880.725
699.853	869.033
699.981	875.800
700.110	860.317
700.238	864.708
700.366	853.392
700.494	850.983
700.622	852.883
700.750	840.475
700.878	846.558
701.006	836.883
701.135	836.858
701.263	837.408
701.391	825.908
701.519	827.683
701.647	828.325
701.775	824.217
701.903	816.042
702.031	814.475
702.160	812.617
702.288	816.042
702.416	808.500
702.544	792.717
702.672	795.250
702.800	795.558
702.928	792.283
703.056	797.050
703.185	783.042
703.313	788.300
703.441	785.658
703.569	773.717
703.697	781.342
703.825	774.533
703.953	771.150
704.081	763.033
704.210	764.667
704.338	762.058
704.466	745.733
704.594	757.667
704.722	745.617
704.850	753.733
704.978	741.125
705.106	736.833
705.235	730.975
705.363	733.925
705.491	728.058
705.619	724.033
705.747	726.600
705.875	722.933
706.003	714.208
706.131	716.392
706.260	712.458
706.388	707.708
706.516	703.150
706.644	701.892
706.772	698.875
706.900	686.217
707.028	687.275
707.156	685.667
707.285	685.667
707.413	677.950
707.541	674.167
707.669	672.108
707.797	676.183
707.925	659.325
708.053	672.192
708.181	665.475
708.310	654.525
708.438	652.075
708.566	647.442
708.694	653.800
708.822	648.858
708.950	640.700
709.078	636.950
709.206	637.417
709.335	631.267
709.463	627.275
709.591	627.492
709.719	620.433
709.847	616.700
709.975	617.783
710.103	608.408
710.231	608.475
710.360	599.300
710.488	601.333
710.616	598.225
710.744	591.692
710.872	598.375
711.000	589.408
711.128	584.633
711.256	582.917
711.385	585.925
711.513	575.100
711.641	573.617
711.769	574.692
711.897	571.325
712.025	558.817
712.153	564.342
712.281	561.658
712.410	560.267
712.538	557.275
712.666	554.875
712.794	554.858
712.922	550.408
713.050	547.758
713.178	547.108
713.306	543.167
713.435	536.467
713.563	538.450
713.691	539.542
713.819	532.842
713.947	524.400
714.075	528.575
714.203	529.683
714.331	527.167
714.460	518.525
714.588	516.883
714.716	516.700
714.844	510.583
714.972	508.592
715.100	505.892
715.228	504.775
715.356	502.408
715.485	499.842
715.613	498.583
715.741	496.792
715.869	497.067
715.997	495.383
716.125	489.708
716.253	488.858
716.381	490.708
716.510	488.433
716.638	484.100
716.766	480.700
716.894	477.992
717.022	477.783
717.150	470.633
717.278	472.033
717.406	471.700
717.535	472.625
717.663	470.675
717.791	465.842
717.919	459.883
718.047	457.267
718.175	463.708
718.303	459.750
718.431	454.033
718.560	451.575
718.688	448.783
718.816	449.225
718.944	448.783
719.072	449.258
719.200	444.708
719.328	440.733
719.456	440.883
719.585	442.367
719.713	438.150
719.841	432.333
719.969	434.842
720.097	426.233
720.225	424.742
720.353	426.658
720.481	432.400
720.610	424.158
720.738	420.617
720.866	414.050
720.994	422.017
721.122	420.800
721.250	414.600
721.378	409.017
721.506	410.508
721.635	410.567
721.763	410.900
721.891	407.833
722.019	404.333
722.147	400.600
722.275	398.692
722.403	403.667
722.531	394.308
722.660	394.225
722.788	392.442
722.916	391.767
723.044	387.917
723.172	386.533
723.300	384.133
723.428	384.175
723.556	379.808
723.685	379.542
723.813	379.825
723.941	370.908
724.069	375.250
724.197	374.533
724.325	366.792
724.453	369.817
724.581	368.992
724.710	362.350
724.838	364.350
724.966	359.192
725.094	359.675
725.222	357.908
725.350	357.258
725.478	355.500
725.606	354.183
725.735	352.350
725.863	351.392
725.991	342.833
726.119	344.542
726.247	340.850
726.375	342.192
726.503	347.592
726.631	338.833
726.760	334.942
726.888	336.992
727.016	332.692
727.144	332.717
727.272	335.358
727.400	329.700
727.528	325.408
727.656	327.458
727.785	325.658
727.913	325.500
728.041	317.092
728.169	323.608
728.297	316.533
728.425	318.717
728.553	318.767
728.681	314.092
728.810	308.942
728.938	315.608
729.066	313.800
729.194	309.617
729.322	305.883
729.450	303.925
729.578	306.700
729.706	300.892
729.835	303.083
729.963	302.208
730.091	297.692
730.219	296.458
730.347	295.633
730.475	292.092
730.603	293.283
730.731	294.075
730.860	293.925
730.988	290.900
731.116	291.533
731.244	286.358
731.372	289.058
731.500	281.375
731.628	286.142
731.756	283.592
731.885	278.492
732.013	279.600
732.141	279.892
732.269	280.433
732.397	280.092
732.525	275.417
732.653	276.008
732.781	274.842
732.910	273.333
733.038	274.033
733.166	269.308
733.294	268.375
733.422	270.925
733.550	264.825
733.678	264.642
733.806	266.008
733.935	265.242
734.063	264.133
734.191	260.467
734.319	260.342
734.447	259.775
734.575	260.208
734.703	256.333
734.831	257.642
734.960	256.625
735.088	253.733
735.216	252.783
735.344	255.117
735.472	248.175
735.600	249.292
735.728	250.200
735.856	248.667
735.985	249.233
736.113	246.917
736.241	245.192
736.369	246.558
736.497	244.800
736.625	243.158
736.753	244.208
736.881	244.167
737.010	241.025
737.138	238.842
737.266	235.725
737.394	238.692
737.522	238.175
737.650	238.300
737.778	234.208
737.906	233.617
738.035	233.667
738.163	234.058
738.291	230.575
738.419	228.025
738.547	231.117
738.675	227.733
738.803	227.458
738.931	226.125
739.060	227.450
739.188	225.175
739.316	225.917
739.444	224.525
739.572	222.933
739.700	221.742
739.828	220.167
739.956	218.300
740.085	220.833
740.213	217.825
740.341	216.300
740.469	220.558
740.597	216.883
740.725	216.908
740.853	213.450
740.981	217.233
741.110	217.417
741.238	213.375
741.366	212.858
741.494	215.458
741.622	212.633
741.750	211.658
741.878	214.000
742.006	212.117
742.135	210.292
742.263	210.492
742.391	206.950
742.519	209.992
742.647	210.642
742.775	210.167
742.903	206.775
743.031	206.458
743.160	205.983
743.288	203.917
743.416	204.450
743.544	198.258
743.672	205.075
743.800	202.183
743.928	203.042
744.056	203.217
744.185	202.583
744.313	201.200
744.441	197.275
744.569	197.942
744.697	195.325
744.825	200.425
744.953	197.775
745.081	194.908
745.210	195.708
745.338	196.175
745.466	193.208
745.594	194.275
745.722	192.692
745.850	193.633
745.978	194.125
746.106	192.950
746.235	190.617
746.363	192.033
746.491	191.067
746.619	188.967
746.747	188.683
746.875	187.733
747.003	189.008
747.131	190.117
747.260	187.642
747.388	190.950
747.516	190.158
747.644	186.650
747.772	184.183
747.900	184.342
748.028	183.683
748.156	183.942
748.285	183.308
748.413	182.883
748.541	182.308
748.669	182.000
748.797	182.817
748.925	180.833
749.053	178.175
749.181	178.200
749.310	179.100
749.438	177.392
749.566	176.000
749.694	177.925
749.822	175.933
749.950	176.683
750.078	177.192
750.206	175.250
750.335	173.392
750.463	174.242
750.591	173.208
750.719	172.700
750.847	170.683
750.975	169.358
751.103	170.975
751.231	172.392
751.360	171.892
751.488	171.892
751.616	169.508
751.744	169.758
751.872	165.708
752.000	166.658
752.128	166.900
752.256	168.617
752.385	163.733
752.513	165.317
752.641	162.967
752.769	166.933
752.897	165.225
753.025	161.858
753.153	163.167
753.281	162.533
753.410	161.992
753.538	162.408
753.666	163.800
753.794	162.333
753.922	160.758
754.050	160.367
754.178	158.958
754.306	159.450
754.435	156.925
754.563	160.942
754.691	158.208
754.819	156.650
754.947	158.400
755.075	158.000
755.203	157.458
755.331	158.558
755.460	156.267
755.588	157.625
755.716	154.583
755.844	154.083
755.972	156.425
756.100	154.075
756.228	155.283
756.356	152.517
756.485	154.417
756.613	153.592
756.741	154.583
756.869	152.833
756.997	152.392
757.125	153.575
757.253	150.117
757.381	151.692
757.510	151.767
757.638	151.883
757.766	151.392
757.894	150.083
758.022	149.008
758.150	150.342
758.278	150.808
758.406	146.517
758.535	149.125
758.663	148.408
758.791	149.708
758.919	146.350
759.047	146.658
759.175	147.558
759.303	146.025
759.431	145.717
759.560	144.825
759.688	146.433
759.816	147.442
759.944	144.350
760.072	144.100
760.200	143.850
760.328	145.583
760.456	143.192
760.585	144.467
760.713	144.317
760.841	142.642
760.969	143.433
761.097	142.067
761.225	141.367
761.353	142.150
761.481	141.850
761.610	141.233
761.738	141.492
761.866	142.767
761.994	139.308
762.122	139.633
762.250	140.808
762.378	140.517
762.506	139.667
762.635	138.858
762.763	139.442
762.891	139.783
763.019	139.492
763.147	139.625
763.275	137.408
763.403	139.508
763.531	134.375
763.660	136.775
763.788	137.567
763.916	137.708
764.044	136.283
764.172	137.375
764.300	137.075
764.428	135.717
764.556	135.717
764.685	136.058
764.813	135.067
764.941	136.942
765.069	136.792
765.197	136.300
765.325	134.500
765.453	135.467
765.581	135.033
765.710	134.150
765.838	132.675
765.966	134.025
766.094	133.108
766.222	135.017
766.350	134.875
766.478	134.242
766.606	131.567
766.735	131.983
766.863	131.233
766.991	132.833
767.119	133.175
767.247	131.400
767.375	132.350
767.503	131.233
767.631	131.150
767.760	130.542
767.888	131.392
768.016	132.442
768.144	130.575
768.272	131.092
768.400	131.525
768.528	130.175
768.656	129.925
768.785	131.158
768.913	130.308
769.041	129.300
769.169	129.567
769.297	131.133
769.425	128.133
769.553	130.433
769.681	128.458
769.810	130.150
769.938	129.075
770.066	128.508
770.194	128.225
770.322	128.875
770.450	128.167
770.578	127.658
770.706	128.650
770.835	128.050
770.963	128.708
771.091	125.617
771.219	127.108
771.347	127.775
771.475	127.267
771.603	126.500
771.731	126.850
771.860	128.542
771.988	126.817
772.116	127.342
772.244	125.775
772.372	127.033
772.500	127.117
772.628	127.092
772.756	124.442
772.885	126.467
773.013	125.833
773.141	125.592
773.269	123.575
773.397	124.092
773.525	124.292
773.653	124.000
773.781	122.967
773.910	124.325
774.038	123.867
774.166	123.450
774.294	125.025
774.422	122.850
774.550	124.383
774.678	122.983
774.806	122.292
774.935	121.483
775.063	121.658
775.191	125.325
775.319	123.217
775.447	121.808
775.575	123.017
775.703	124.050
775.831	121.892
775.960	121.350
776.088	122.992
776.216	121.583
776.344	119.825
776.472	122.292
776.600	122.700
776.728	120.925
776.856	121.650
776.985	122.075
777.113	119.958
777.241	120.092
777.369	120.675
777.497	119.175
777.625	121.475
777.753	121.583
777.881	119.917
778.010	119.383
778.138	119.900
778.266	118.042
778.394	119.392
778.522	120.392
778.650	119.833
778.778	118.150
778.906	120.058
779.035	121.467
779.163	118.250
779.291	119.000
779.419	119.300
779.547	119.525
779.675	119.117
779.803	118.425
779.931	117.092
780.060	118.767
780.188	119.575
780.316	119.825
780.444	119.508
780.572	117.692
780.700	117.633
780.828	117.083
780.956	118.050
781.085	118.467
781.213	118.333
781.341	116.908
781.469	116.958
781.597	118.642
781.725	117.450
781.853	116.625
781.981	116.983
782.110	118.833
782.238	116.633
782.366	117.283
782.494	115.808
782.622	117.900
782.750	117.625
782.878	116.692
783.006	117.092
783.135	116.808
783.263	115.625
783.391	115.958
783.519	115.933
783.647	115.392
783.775	116.775
783.903	115.917
784.031	115.083
784.160	114.950
784.288	115.842
784.416	115.675
784.544	115.908
784.672	115.042
784.800	115.375
784.928	115.050
785.056	114.583
785.185	115.083
785.313	113.500
785.441	112.867
785.569	114.933
785.697	114.808
785.825	113.675
785.953	112.867
786.081	114.275
786.210	114.117
786.338	115.042
786.466	114.575
786.594	113.017
786.722	113.967
786.850	113.417
786.978	113.067
787.106	112.217
787.235	113.058
787.363	112.883
787.491	112.800
787.619	113.783
787.747	113.567
787.875	113.417
788.003	112.083
788.131	111.992
788.260	112.192
788.388	112.942
788.516	111.133
788.644	113.200
788.772	111.458
788.900	112.775
789.028	110.700
789.156	112.958
789.285	111.983
789.413	112.533
789.541	113.275
789.669	111.742
789.797	111.550
789.925	112.575
790.053	112.342
790.181	111.317
790.310	111.192
790.438	111.333
790.566	110.875
790.694	111.542
790.822	112.233
790.950	112.825
791.078	111.325
791.206	110.233
791.335	110.267
791.463	110.725
791.591	111.517
791.719	112.467
791.847	110.067
791.975	110.292
792.103	109.175
792.231	112.292
792.360	110.333
792.488	109.600
792.616	110.692
792.744	110.558
792.872	109.983
793.000	110.875
793.128	110.633
793.256	110.742
793.385	110.600
793.513	110.600
793.641	111.017
793.769	109.392
793.897	109.717
794.025	111.550
794.153	110.717
794.281	110.425
794.410	110.083
794.538	110.050
794.666	109.575
794.794	108.733
794.922	109.892
795.050	108.792
795.178	110.775
795.306	107.800
795.435	109.150
795.563	109.492
795.691	107.850
795.819	108.650
795.947	109.167
796.075	109.917
796.203	110.250
796.331	108.517
796.460	108.725
796.588	108.750
796.716	109.383
796.844	108.917
796.972	110.342
797.100	107.625
797.228	108.725
797.356	110.033
797.485	108.833
797.613	108.958
797.741	108.725
797.869	109.708
797.997	108.925
798.125	108.292
798.253	109.375
798.381	108.358
798.510	109.158
798.638	107.383
798.766	108.308
798.894	107.167
799.022	107.308
799.150	107.925
799.278	108.325
799.406	108.367
799.535	109.258
799.663	108.667
799.791	107.792
799.919	108.083
800.047	108.933
800.175	108.858
800.303	107.650
800.431	107.283
800.560	107.492
800.688	108.650
800.816	107.217
800.944	107.808
801.072	107.833
801.200	107.867
801.328	108.242
801.456	108.542
801.585	108.492
801.713	107.658
801.841	108.017
801.969	108.042
802.097	108.392
802.225	107.067
802.353	107.708
802.481	108.275
802.610	109.142
802.738	107.075
802.866	107.558
802.994	107.050
803.122	107.800
803.250	107.442
803.378	108.517
803.506	108.133
803.635	107.892
803.763	106.667
803.891	107.725
804.019	107.508
804.147	108.425
804.275	107.067
804.403	106.967
804.531	107.083
804.660	108.025
804.788	107.475
804.916	106.708
805.044	105.767
805.172	107.333
805.300	106.892
805.428	106.725
805.556	106.675
805.685	107.733
805.813	107.658
805.941	106.058
806.069	107.967
806.197	107.533
806.325	106.242
806.453	107.408
806.581	106.733
806.710	106.850
806.838	105.558
806.966	106.625
807.094	106.275
807.222	106.800
807.350	107.200
807.478	106.925
807.606	105.808
807.735	106.583
807.863	106.733
807.991	106.267
808.119	106.308
808.247	105.667
808.375	106.400
808.503	106.175
808.631	106.925
808.760	106.583
808.888	105.533
809.016	106.458
809.144	107.050
809.272	107.283
809.400	108.008
809.528	106.517
809.656	105.492
809.785	106.125
809.913	106.158
810.041	106.025
810.169	106.625
810.297	106.500
810.425	106.125
810.553	105.842
810.681	107.008
810.810	106.233
810.938	107.775
811.066	105.025
811.194	104.442
811.322	106.275
811.450	106.292
811.578	106.717
811.706	106.550
811.835	105.792
811.963	105.408
812.091	106.867
812.219	106.608
812.347	105.850
812.475	106.742
812.603	106.800
812.731	104.775
812.860	106.783
812.988	106.675
813.116	105.375
813.244	106.325
813.372	106.442
813.500	106.158
813.628	106.817
813.756	104.725
813.885	106.383
814.013	104.883
814.141	106.492
814.269	105.783
814.397	106.583
814.525	105.875
814.653	105.375
814.781	105.592
814.910	104.825
815.038	106.283
815.166	106.283
815.294	104.725
815.422	107.467
815.550	104.425
815.678	104.158
815.806	104.900
815.935	104.908
816.063	104.808
816.191	104.742
816.319	105.858
816.447	105.275
816.575	105.883
816.703	105.617
816.831	106.117
816.960	106.525
817.088	105.350
817.216	104.958
817.344	106.017
817.472	106.542
817.600	105.092
817.728	104.717
817.856	105.567
817.985	104.467
818.113	105.583
818.241	105.800
818.369	105.150
818.497	105.875
818.625	105.583
818.753	104.875
818.881	106.183
819.010	105.317
819.138	104.783
819.266	105.058
819.394	105.058
819.522	103.392
819.650	105.383
819.778	105.233
819.906	105.458
820.035	105.242
820.163	105.292
820.291	103.983
820.419	104.625
820.547	106.325
820.675	103.767
820.803	105.475
820.931	105.750
821.060	102.742
821.188	105.225
821.316	103.933
821.444	105.267
821.572	105.083
821.700	104.950
821.828	105.450
821.956	104.733
822.085	104.542
822.213	105.400
822.341	104.900
822.469	103.792
822.597	104.458
822.725	104.592
822.853	104.558
822.981	104.233
823.110	105.592
823.238	103.933
823.366	105.767
823.494	104.242
823.622	103.725
823.750	104.700
823.878	103.492
824.006	105.425
824.135	105.400
824.263	105.858
824.391	104.183
824.519	104.892
824.647	105.458
824.775	105.417
824.903	105.650
825.031	105.467
825.160	105.850
825.288	104.833
825.416	105.683
825.544	105.467
825.672	105.458
825.800	105.683
825.928	105.675
826.056	104.958
826.185	104.342
826.313	104.917
826.441	104.600
826.569	104.225
826.697	105.750
826.825	104.567
826.953	104.767
827.081	103.983
827.210	104.058
827.338	103.550
827.466	103.575
827.594	104.075
827.722	104.742
827.850	105.158
827.978	104.292
828.106	104.092
828.235	106.142
828.363	104.850
828.491	104.667
828.619	104.642
828.747	105.175
828.875	104.158
829.003	104.908
829.131	105.758
829.260	105.533
829.388	104.550
829.516	104.417
829.644	104.425
829.772	105.342
829.900	105.292
830.028	105.217
830.156	104.250
830.285	104.925
830.413	104.167
830.541	104.858
830.669	103.983
830.797	103.475
830.925	103.942
831.053	103.683
831.181	104.425
831.310	104.933
831.438	104.550
831.566	104.433
831.694	104.333
831.822	102.850
831.950	104.325
832.078	105.067
832.206	103.900
832.335	103.875
832.463	104.650
832.591	104.358
832.719	104.150
832.847	104.283
832.975	104.033
833.103	104.175
833.231	103.908
833.360	104.675
833.488	104.717
833.616	103.992
833.744	103.217
833.872	104.650
834.000	105.375
834.128	104.850
834.256	104.475
834.385	103.808
834.513	104.875
834.641	102.767
834.769	103.350
834.897	104.517
835.025	102.967
835.153	103.225
835.281	104.367
835.410	104.550
835.538	104.567
835.666	103.983
835.794	104.275
835.922	104.067
836.050	103.983
836.178	104.325
836.306	103.583
836.435	104.267
836.563	104.242
836.691	104.808
836.819	105.350
836.947	103.700
837.075	104.358
837.203	103.500
837.331	103.892
837.460	104.025
837.588	103.333
837.716	104.458
837.844	103.767
837.972	103.875
838.100	104.117
838.228	103.067
838.356	102.733
838.485	102.275
838.613	103.633
838.741	104.175
838.869	104.075
838.997	104.433
839.125	102.433
839.253	103.150
839.381	103.833
839.510	104.317
839.638	103.783
839.766	103.133
839.894	103.867
840.022	104.192
840.150	104.108
840.278	103.650
840.406	104.833
840.535	104.517
840.663	103.083
840.791	102.492
840.919	103.775
841.047	103.883
841.175	103.742
841.303	103.583
841.431	104.300
841.560	103.833
841.688	103.408
841.816	103.008
841.944	104.217
842.072	104.475
842.200	104.217
842.328	103.975
842.456	104.200
842.585	103.917
842.713	103.833
842.841	103.825
842.969	104.158
843.097	104.392
843.225	104.300
843.353	104.375
843.481	103.000
843.610	103.892
843.738	102.942
843.866	103.667
