Lampe_Signal_90_at_679.99nm_cut_at_1286.00Y_01.dat
24.01.2024
11:22:37
cut middle at Y: 1286.00
top cursor: 1345 down cursor: 1227 mean of: 118 lines , 2560 datapoints
wavelength(nm)	intensity[arb. units]
515.994	379.847
516.122	360.551
516.250	354.602
516.378	349.788
516.506	351.161
516.635	352.619
516.763	353.551
516.891	355.619
517.019	359.297
517.147	353.873
517.275	355.085
517.403	352.788
517.531	355.831
517.660	356.085
517.788	351.000
517.916	360.110
518.044	353.737
518.172	354.941
518.300	349.847
518.428	357.127
518.556	352.364
518.685	353.025
518.813	355.102
518.941	354.941
519.069	360.525
519.197	358.373
519.325	361.449
519.453	357.475
519.581	360.458
519.710	355.483
519.838	361.458
519.966	356.500
520.094	363.517
520.222	361.068
520.350	364.127
520.478	365.737
520.606	361.508
520.735	364.144
520.863	367.839
520.991	369.508
521.119	362.008
521.247	372.568
521.375	370.178
521.503	370.763
521.631	369.356
521.760	370.873
521.888	371.398
522.016	374.932
522.144	374.907
522.272	372.898
522.400	374.831
522.528	377.492
522.656	375.407
522.785	377.636
522.913	377.559
523.041	376.076
523.169	375.839
523.297	374.508
523.425	380.678
523.553	380.153
523.681	374.992
523.810	381.847
523.938	382.644
524.066	377.788
524.194	378.729
524.322	382.119
524.450	373.178
524.578	376.653
524.706	382.915
524.835	376.797
524.963	382.093
525.091	377.771
525.219	376.390
525.347	373.669
525.475	377.661
525.603	382.780
525.731	375.500
525.860	379.110
525.988	375.669
526.116	375.941
526.244	379.475
526.372	374.568
526.500	379.661
526.628	380.695
526.756	379.636
526.885	380.559
527.013	377.585
527.141	382.102
527.269	378.297
527.397	384.076
527.525	382.271
527.653	378.644
527.781	377.102
527.910	385.703
528.038	388.059
528.166	381.890
528.294	376.975
528.422	383.500
528.550	385.000
528.678	383.144
528.806	386.780
528.935	388.449
529.063	385.551
529.191	384.034
529.319	387.076
529.447	388.678
529.575	389.551
529.703	386.932
529.831	388.153
529.960	390.195
530.088	392.407
530.216	391.246
530.344	386.669
530.472	393.839
530.600	395.542
530.728	389.153
530.856	396.983
530.985	398.729
531.113	392.814
531.241	395.653
531.369	393.237
531.497	398.508
531.625	394.856
531.753	391.220
531.881	397.322
532.010	395.873
532.138	393.873
532.266	391.042
532.394	393.017
532.522	390.119
532.650	394.169
532.778	398.339
532.906	395.271
533.035	395.059
533.163	391.051
533.291	396.559
533.419	397.814
533.547	398.034
533.675	392.161
533.803	394.958
533.931	392.907
534.060	391.246
534.188	396.305
534.316	394.568
534.444	395.449
534.572	398.339
534.700	391.958
534.828	395.856
534.956	397.822
535.085	391.898
535.213	399.000
535.341	392.831
535.469	394.119
535.597	396.220
535.725	396.508
535.853	396.949
535.981	397.381
536.110	402.161
536.238	399.568
536.366	403.153
536.494	398.797
536.622	407.153
536.750	398.763
536.878	402.407
537.006	403.364
537.135	403.017
537.263	403.186
537.391	408.975
537.519	405.831
537.647	405.780
537.775	402.008
537.903	407.805
538.031	405.949
538.160	404.788
538.288	409.331
538.416	407.678
538.544	411.093
538.672	407.339
538.800	407.669
538.928	411.398
539.056	412.322
539.185	410.475
539.313	407.280
539.441	412.669
539.569	412.771
539.697	410.542
539.825	413.119
539.953	405.941
540.081	405.212
540.210	413.161
540.338	413.220
540.466	412.593
540.594	412.508
540.722	407.364
540.850	413.907
540.978	408.407
541.106	413.881
541.235	414.695
541.363	408.814
541.491	409.610
541.619	411.661
541.747	408.102
541.875	410.610
542.003	408.407
542.131	406.483
542.260	412.237
542.388	409.822
542.516	413.720
542.644	415.737
542.772	410.297
542.900	411.653
543.028	409.644
543.156	406.195
543.285	409.203
543.413	411.297
543.541	409.212
543.669	410.110
543.797	410.119
543.925	412.831
544.053	408.449
544.181	411.593
544.310	410.483
544.438	411.347
544.566	412.263
544.694	410.610
544.822	410.992
544.950	414.797
545.078	414.559
545.206	411.805
545.335	413.008
545.463	413.136
545.591	415.398
545.719	415.356
545.847	413.932
545.975	410.627
546.103	412.661
546.231	411.212
546.360	414.136
546.488	417.415
546.616	418.763
546.744	418.542
546.872	412.958
547.000	416.669
547.128	412.873
547.256	417.678
547.385	413.195
547.513	416.458
547.641	417.373
547.769	421.076
547.897	413.093
548.025	421.085
548.153	417.517
548.281	417.890
548.410	417.492
548.538	419.712
548.666	415.195
548.794	413.983
548.922	414.542
549.050	421.805
549.178	415.025
549.306	423.339
549.435	425.788
549.563	416.593
549.691	411.161
549.819	421.636
549.947	418.068
550.075	414.932
550.203	420.314
550.331	419.576
550.460	419.695
550.588	417.051
550.716	421.729
550.844	419.780
550.972	415.797
551.100	409.602
551.228	415.025
551.356	411.144
551.485	411.441
551.613	414.229
551.741	403.373
551.869	407.322
551.997	410.686
552.125	411.424
552.253	409.907
552.381	407.475
552.510	403.381
552.638	407.127
552.766	405.949
552.894	405.415
553.022	405.220
553.150	404.025
553.278	405.881
553.406	404.119
553.535	402.398
553.663	399.627
553.791	397.220
553.919	402.008
554.047	404.517
554.175	401.051
554.303	398.144
554.431	397.958
554.560	396.729
554.688	404.314
554.816	403.051
554.944	401.551
555.072	403.390
555.200	402.831
555.328	400.449
555.456	401.898
555.585	401.229
555.713	402.068
555.841	403.110
555.969	402.322
556.097	409.076
556.225	408.025
556.353	407.008
556.481	405.941
556.610	407.534
556.738	408.627
556.866	406.119
556.994	406.551
557.122	404.136
557.250	408.915
557.378	405.466
557.506	409.814
557.635	407.127
557.763	406.847
557.891	410.059
558.019	405.695
558.147	410.636
558.275	408.610
558.403	410.983
558.531	409.449
558.660	407.364
558.788	413.203
558.916	409.415
559.044	405.220
559.172	405.644
559.300	412.534
559.428	410.441
559.556	408.881
559.685	409.203
559.813	408.686
559.941	408.958
560.069	412.373
560.197	408.864
560.325	407.932
560.453	411.025
560.581	407.627
560.710	405.593
560.838	410.076
560.966	407.068
561.094	407.364
561.222	407.364
561.350	402.737
561.478	401.873
561.606	407.703
561.735	405.415
561.863	401.466
561.991	407.907
562.119	400.254
562.247	401.483
562.375	403.297
562.503	400.000
562.631	400.839
562.760	400.856
562.888	401.915
563.016	401.695
563.144	404.297
563.272	396.619
563.400	398.661
563.528	398.712
563.656	399.619
563.785	400.534
563.913	391.966
564.041	395.356
564.169	394.856
564.297	395.695
564.425	397.585
564.553	397.686
564.681	394.102
564.810	396.212
564.938	403.449
565.066	399.407
565.194	397.407
565.322	398.627
565.450	399.076
565.578	396.941
565.706	393.958
565.835	397.424
565.963	395.712
566.091	393.729
566.219	398.669
566.347	399.695
566.475	400.110
566.603	398.068
566.731	396.864
566.860	403.398
566.988	396.008
567.116	397.949
567.244	397.517
567.372	401.508
567.500	396.898
567.628	395.729
567.756	403.466
567.885	402.136
568.013	403.017
568.141	403.585
568.269	399.712
568.397	400.881
568.525	400.085
568.653	404.915
568.781	406.695
568.910	406.839
569.038	404.068
569.166	402.966
569.294	403.627
569.422	410.042
569.550	403.568
569.678	403.458
569.806	413.712
569.935	412.932
570.063	413.212
570.191	414.932
570.319	413.280
570.447	411.847
570.575	412.831
570.703	409.678
570.831	413.864
570.960	409.966
571.088	412.669
571.216	412.585
571.344	410.424
571.472	414.458
571.600	413.593
571.728	415.271
571.856	413.475
571.985	410.449
572.113	415.542
572.241	415.924
572.369	420.246
572.497	410.915
572.625	417.085
572.753	411.975
572.881	416.432
573.010	413.398
573.138	417.458
573.266	416.119
573.394	416.458
573.522	414.458
573.650	412.025
573.778	413.737
573.906	411.881
574.035	412.949
574.163	411.008
574.291	408.144
574.419	416.492
574.547	415.398
574.675	414.110
574.803	415.653
574.931	415.593
575.060	412.110
575.188	413.712
575.316	411.508
575.444	414.856
575.572	410.568
575.700	409.856
575.828	415.653
575.956	409.949
576.085	409.449
576.213	414.483
576.341	413.847
576.469	408.220
576.597	404.127
576.725	402.212
576.853	408.161
576.981	410.178
577.110	406.068
577.238	407.237
577.366	402.458
577.494	402.000
577.622	403.924
577.750	404.593
577.878	403.669
578.006	402.847
578.135	400.483
578.263	403.051
578.391	407.932
578.519	399.729
578.647	401.712
578.775	400.356
578.903	397.424
579.031	405.229
579.160	397.237
579.288	393.822
579.416	398.356
579.544	397.424
579.672	401.763
579.800	396.025
579.928	397.746
580.056	392.017
580.185	400.712
580.313	397.593
580.441	394.076
580.569	392.915
580.697	398.797
580.825	399.551
580.953	398.678
581.081	399.797
581.210	396.449
581.338	398.949
581.466	398.398
581.594	395.373
581.722	395.212
581.850	395.551
581.978	399.153
582.106	392.822
582.235	396.136
582.363	401.932
582.491	400.153
582.619	397.288
582.747	399.237
582.875	398.576
583.003	398.695
583.131	399.483
583.260	400.686
583.388	399.839
583.516	406.508
583.644	401.873
583.772	398.102
583.900	404.347
584.028	402.847
584.156	404.932
584.285	404.347
584.413	403.763
584.541	403.551
584.669	406.254
584.797	406.797
584.925	406.127
585.053	408.390
585.181	406.924
585.310	410.093
585.438	406.898
585.566	403.907
585.694	408.263
585.822	411.881
585.950	412.576
586.078	410.898
586.206	411.051
586.335	412.500
586.463	417.992
586.591	411.771
586.719	412.136
586.847	409.864
586.975	416.525
587.103	413.831
587.231	413.169
587.360	417.153
587.488	419.407
587.616	414.636
587.744	413.975
587.872	414.331
588.000	414.339
588.128	417.805
588.256	418.500
588.385	415.339
588.513	412.653
588.641	413.195
588.769	422.305
588.897	413.619
589.025	414.712
589.153	412.568
589.281	415.627
589.410	417.780
589.538	414.831
589.666	413.331
589.794	418.305
589.922	418.754
590.050	417.415
590.178	414.525
590.306	414.763
590.435	416.907
590.563	412.551
590.691	417.525
590.819	410.585
590.947	422.500
591.075	414.661
591.203	407.932
591.331	417.246
591.460	417.881
591.588	413.076
591.716	418.585
591.844	414.254
591.972	418.229
592.100	414.814
592.228	412.847
592.356	415.941
592.485	411.763
592.613	414.788
592.741	419.924
592.869	413.695
592.997	417.941
593.125	417.356
593.253	418.585
593.381	413.475
593.510	415.017
593.638	414.585
593.766	416.034
593.894	415.508
594.022	412.475
594.150	420.000
594.278	418.119
594.406	415.720
594.535	413.085
594.663	415.136
594.791	416.475
594.919	417.364
595.047	420.644
595.175	418.119
595.303	414.797
595.431	416.127
595.560	423.975
595.688	424.169
595.816	420.203
595.944	423.136
596.072	419.661
596.200	418.619
596.328	418.127
596.456	416.000
596.585	422.220
596.713	421.424
596.841	424.059
596.969	421.729
597.097	427.339
597.225	426.042
597.353	425.924
597.481	421.288
597.610	422.720
597.738	422.415
597.866	421.203
597.994	425.017
598.122	423.585
598.250	422.661
598.378	425.441
598.506	423.805
598.635	420.576
598.763	417.881
598.891	423.949
599.019	424.161
599.147	422.398
599.275	421.051
599.403	424.576
599.531	423.568
599.660	422.398
599.788	424.703
599.916	421.220
600.044	423.754
600.172	425.068
600.300	422.593
600.428	425.839
600.556	426.110
600.685	424.322
600.813	424.085
600.941	431.364
601.069	430.280
601.197	430.051
601.325	425.915
601.453	429.136
601.581	429.966
601.710	429.627
601.838	432.915
601.966	425.212
602.094	429.602
602.222	432.000
602.350	430.593
602.478	431.941
602.606	432.076
602.735	433.390
602.863	433.636
602.991	430.941
603.119	431.492
603.247	434.119
603.375	435.093
603.503	435.559
603.631	433.347
603.760	435.890
603.888	431.695
604.016	436.246
604.144	440.229
604.272	440.280
604.400	440.720
604.528	433.042
604.656	441.220
604.785	437.856
604.913	448.966
605.041	440.136
605.169	443.288
605.297	442.864
605.425	440.644
605.553	443.890
605.681	439.636
605.810	440.508
605.938	437.322
606.066	437.398
606.194	442.763
606.322	440.229
606.450	443.297
606.578	440.881
606.706	440.703
606.835	447.983
606.963	449.381
607.091	441.856
607.219	444.424
607.347	441.254
607.475	444.636
607.603	448.195
607.731	449.585
607.860	444.822
607.988	444.992
608.116	444.314
608.244	439.542
608.372	443.441
608.500	441.669
608.628	441.169
608.756	441.356
608.885	443.686
609.013	446.246
609.141	444.881
609.269	442.339
609.397	439.669
609.525	443.127
609.653	437.686
609.781	439.822
609.910	443.008
610.038	437.720
610.166	433.568
610.294	442.246
610.422	439.186
610.550	437.178
610.678	438.195
610.806	435.932
610.935	436.517
611.063	438.932
611.191	439.839
611.319	431.695
611.447	436.746
611.575	437.805
611.703	431.585
611.831	433.534
611.960	431.695
612.088	436.364
612.216	435.907
612.344	430.729
612.472	433.797
612.600	431.432
612.728	433.322
612.856	433.373
612.985	437.856
613.113	430.593
613.241	434.678
613.369	432.924
613.497	432.102
613.625	434.568
613.753	431.508
613.881	432.576
614.010	433.364
614.138	430.661
614.266	433.898
614.394	432.780
614.522	429.805
614.650	430.686
614.778	434.780
614.906	439.847
615.035	428.008
615.163	431.127
615.291	430.025
615.419	431.856
615.547	430.881
615.675	434.475
615.803	431.983
615.931	436.898
616.060	436.975
616.188	431.458
616.316	432.517
616.444	432.534
616.572	432.754
616.700	429.212
616.828	438.398
616.956	436.780
617.085	435.364
617.213	434.305
617.341	433.602
617.469	434.864
617.597	434.229
617.725	433.169
617.853	439.653
617.981	431.754
618.110	437.932
618.238	434.076
618.366	442.771
618.494	437.347
618.622	439.644
618.750	434.169
618.878	436.975
619.006	437.712
619.135	441.195
619.263	435.669
619.391	437.381
619.519	443.602
619.647	440.559
619.775	437.042
619.903	443.237
620.031	442.958
620.160	441.466
620.288	440.975
620.416	443.763
620.544	448.280
620.672	446.593
620.800	443.390
620.928	445.627
621.056	443.839
621.185	440.551
621.313	443.966
621.441	443.881
621.569	448.542
621.697	446.873
621.825	446.890
621.953	445.593
622.081	449.483
622.210	445.500
622.338	449.602
622.466	453.847
622.594	447.737
622.722	446.415
622.850	446.110
622.978	450.466
623.106	447.856
623.235	451.153
623.363	445.356
623.491	442.220
623.619	445.958
623.747	449.839
623.875	442.576
624.003	445.237
624.131	442.610
624.260	441.263
624.388	446.280
624.516	447.144
624.644	442.627
624.772	447.780
624.900	448.602
625.028	442.398
625.156	450.068
625.285	443.271
625.413	442.237
625.541	438.390
625.669	444.008
625.797	444.254
625.925	443.068
626.053	440.466
626.181	442.983
626.310	439.008
626.438	439.195
626.566	437.805
626.694	438.881
626.822	442.780
626.950	438.712
627.078	440.195
627.206	443.441
627.335	445.458
627.463	444.661
627.591	438.068
627.719	442.805
627.847	440.636
627.975	441.000
628.103	436.856
628.231	439.136
628.360	440.805
628.488	443.627
628.616	436.483
628.744	436.559
628.872	439.415
629.000	437.686
629.128	440.297
629.256	442.559
629.385	443.542
629.513	437.856
629.641	444.195
629.769	434.017
629.897	437.797
630.025	439.322
630.153	437.500
630.281	437.941
630.410	439.153
630.538	442.576
630.666	437.263
630.794	438.576
630.922	431.390
631.050	434.661
631.178	434.746
631.306	431.373
631.435	438.195
631.563	434.390
631.691	430.619
631.819	429.864
631.947	434.924
632.075	436.593
632.203	443.551
632.331	436.212
632.460	437.458
632.588	435.525
632.716	436.441
632.844	434.890
632.972	435.559
633.100	431.763
633.228	434.610
633.356	427.195
633.485	430.110
633.613	431.881
633.741	429.297
633.869	434.720
633.997	430.254
634.125	428.788
634.253	421.873
634.381	427.644
634.510	432.669
634.638	422.585
634.766	430.992
634.894	427.229
635.022	423.102
635.150	423.585
635.278	428.797
635.406	425.856
635.535	429.322
635.663	428.839
635.791	417.864
635.919	427.720
636.047	425.297
636.175	420.042
636.303	422.517
636.431	424.076
636.560	425.559
636.688	423.831
636.816	420.449
636.944	421.127
637.072	426.686
637.200	424.500
637.328	418.492
637.456	425.059
637.585	418.398
637.713	421.856
637.841	418.068
637.969	418.966
638.097	420.271
638.225	417.246
638.353	416.263
638.481	417.203
638.610	418.941
638.738	414.754
638.866	418.254
638.994	415.712
639.122	421.271
639.250	419.059
639.378	417.398
639.506	413.644
639.635	419.881
639.763	411.246
639.891	420.898
640.019	421.153
640.147	414.627
640.275	413.847
640.403	411.381
640.531	418.347
640.660	416.797
640.788	417.805
640.916	410.898
641.044	412.220
641.172	415.771
641.300	413.831
641.428	416.966
641.556	413.619
641.685	412.949
641.813	412.915
641.941	417.186
642.069	412.288
642.197	414.229
642.325	411.754
642.453	414.008
642.581	411.636
642.710	416.220
642.838	415.407
642.966	410.203
643.094	409.017
643.222	407.669
643.350	411.924
643.478	410.119
643.606	413.390
643.735	410.110
643.863	412.780
643.991	412.271
644.119	408.508
644.247	412.102
644.375	414.110
644.503	414.110
644.631	413.483
644.760	413.017
644.888	412.525
645.016	411.110
645.144	415.898
645.272	409.864
645.400	412.263
645.528	407.449
645.656	403.144
645.785	406.542
645.913	405.424
646.041	409.873
646.169	403.280
646.297	405.551
646.425	405.653
646.553	399.907
646.681	401.203
646.810	405.703
646.938	401.754
647.066	400.212
647.194	401.119
647.322	400.771
647.450	398.636
647.578	400.195
647.706	397.415
647.835	395.008
647.963	399.331
648.091	399.653
648.219	394.525
648.347	399.653
648.475	392.839
648.603	394.856
648.731	393.288
648.860	392.280
648.988	392.788
649.116	390.347
649.244	388.686
649.372	386.034
649.500	387.788
649.628	390.076
649.756	388.153
649.885	387.051
650.013	387.932
650.141	379.831
650.269	381.093
650.397	381.542
650.525	377.661
650.653	380.000
650.781	372.398
650.910	378.847
651.038	373.559
651.166	377.178
651.294	373.305
651.422	365.542
651.550	372.746
651.678	369.390
651.806	368.508
651.935	369.364
652.063	365.847
652.191	369.669
652.319	367.669
652.447	369.364
652.575	367.966
652.703	364.890
652.831	367.017
652.960	367.169
653.088	363.898
653.216	361.907
653.344	359.771
653.472	362.703
653.600	360.542
653.728	361.551
653.856	359.712
653.985	359.585
654.113	360.881
654.241	362.492
654.369	360.500
654.497	360.500
654.625	359.661
654.753	359.271
654.881	360.805
655.010	356.280
655.138	355.932
655.266	355.347
655.394	350.644
655.522	355.390
655.650	350.729
655.778	352.703
655.906	357.246
656.035	354.636
656.163	354.085
656.291	353.136
656.419	355.797
656.547	356.076
656.675	352.500
656.803	352.475
656.931	351.610
657.060	350.771
657.188	351.949
657.316	352.127
657.444	349.729
657.572	350.653
657.700	346.051
657.828	348.729
657.956	347.186
658.085	351.949
658.213	343.949
658.341	352.729
658.469	344.864
658.597	347.229
658.725	351.280
658.853	342.237
658.981	344.076
659.110	344.932
659.238	341.678
659.366	344.517
659.494	336.254
659.622	338.220
659.750	340.144
659.878	341.093
660.006	341.763
660.135	343.212
660.263	339.093
660.391	341.424
660.519	341.466
660.647	336.881
660.775	339.559
660.903	338.203
661.031	339.517
661.160	336.186
661.288	336.805
661.416	336.297
661.544	337.314
661.672	339.873
661.800	336.483
661.928	333.678
662.056	328.898
662.185	335.703
662.313	329.907
662.441	333.805
662.569	332.059
662.697	331.398
662.825	334.500
662.953	335.178
663.081	329.754
663.210	327.653
663.338	331.873
663.466	331.907
663.594	325.441
663.722	322.924
663.850	326.051
663.978	325.347
664.106	324.068
664.235	324.492
664.363	329.212
664.491	324.797
664.619	325.949
664.747	321.831
664.875	323.873
665.003	322.322
665.131	322.703
665.260	321.356
665.388	320.297
665.516	320.636
665.644	321.102
665.772	321.847
665.900	320.754
666.028	321.559
666.156	324.331
666.285	322.034
666.413	321.881
666.541	318.636
666.669	321.602
666.797	313.398
666.925	316.864
667.053	317.534
667.181	313.500
667.310	311.788
667.438	315.695
667.566	311.729
667.694	317.136
667.822	315.220
667.950	313.542
668.078	311.136
668.206	311.059
668.335	310.322
668.463	312.720
668.591	310.644
668.719	311.339
668.847	304.466
668.975	311.551
669.103	312.364
669.231	307.602
669.360	312.754
669.488	306.331
669.616	308.364
669.744	304.551
669.872	306.356
670.000	307.059
670.128	307.042
670.256	308.636
670.385	307.881
670.513	306.992
670.641	306.246
670.769	303.788
670.897	300.203
671.025	303.568
671.153	304.746
671.281	306.678
671.410	301.492
671.538	300.864
671.666	298.686
671.794	304.822
671.922	299.873
672.050	303.059
672.178	302.737
672.306	295.856
672.435	299.788
672.563	300.297
672.691	297.000
672.819	295.559
672.947	297.144
673.075	299.314
673.203	293.432
673.331	293.975
673.460	296.119
673.588	292.881
673.716	292.271
673.844	291.763
673.972	291.975
674.100	292.068
674.228	290.280
674.356	288.517
674.485	287.551
674.613	284.864
674.741	286.297
674.869	285.000
674.997	285.051
675.125	281.703
675.253	281.424
675.381	280.492
675.510	286.008
675.638	284.102
675.766	283.136
675.894	284.229
676.022	278.246
676.150	277.856
676.278	282.195
676.406	282.093
676.535	278.941
676.663	280.136
676.791	278.356
676.919	275.059
677.047	272.220
677.175	274.542
677.303	275.034
677.431	277.093
677.560	267.703
677.688	276.305
677.816	272.068
677.944	270.271
678.072	267.000
678.200	272.949
678.328	267.008
678.456	267.271
678.585	268.085
678.713	267.373
678.841	269.610
678.969	266.119
679.097	269.966
679.225	266.203
679.353	265.373
679.481	263.356
679.610	264.636
679.738	260.822
679.866	265.466
679.994	260.729
680.122	260.729
680.250	265.000
680.378	259.407
680.506	259.975
680.635	255.432
680.763	262.407
680.891	256.271
681.019	260.525
681.147	257.280
681.275	254.559
681.403	257.178
681.531	255.585
681.660	254.686
681.788	255.034
681.916	253.915
682.044	258.195
682.172	250.907
682.300	252.576
682.428	252.381
682.556	252.203
682.685	250.042
682.813	251.720
682.941	252.161
683.069	248.975
683.197	253.610
683.325	248.059
683.453	251.619
683.581	247.203
683.710	247.263
683.838	249.424
683.966	247.890
684.094	249.305
684.222	248.814
684.350	245.280
684.478	245.881
684.606	249.593
684.735	241.907
684.863	246.331
684.991	246.322
685.119	247.119
685.247	244.085
685.375	240.339
685.503	242.178
685.631	241.466
685.760	241.119
685.888	245.042
686.016	245.110
686.144	241.331
686.272	237.712
686.400	241.271
686.528	240.508
686.656	239.390
686.785	240.398
686.913	241.831
687.041	240.924
687.169	243.780
687.297	238.153
687.425	236.636
687.553	240.466
687.681	239.153
687.810	235.932
687.938	236.695
688.066	237.508
688.194	239.686
688.322	237.424
688.450	236.085
688.578	238.492
688.706	238.797
688.835	235.347
688.963	236.712
689.091	235.254
689.219	235.203
689.347	234.492
689.475	233.254
689.603	233.975
689.731	235.856
689.860	231.602
689.988	235.110
690.116	232.000
690.244	231.458
690.372	233.746
690.500	231.983
690.628	230.729
690.756	233.271
690.885	232.907
691.013	229.364
691.141	232.720
691.269	228.288
691.397	233.542
691.525	227.542
691.653	228.653
691.781	231.492
691.910	226.500
692.038	228.839
692.166	230.669
692.294	228.119
692.422	229.229
692.550	227.161
692.678	227.864
692.806	227.992
692.935	225.983
693.063	224.924
693.191	226.271
693.319	221.814
693.447	222.992
693.575	224.856
693.703	222.805
693.831	222.203
693.960	221.992
694.088	221.797
694.216	220.280
694.344	219.085
694.472	220.678
694.600	223.297
694.728	219.983
694.856	218.017
694.985	221.449
695.113	219.958
695.241	220.602
695.369	220.831
695.497	215.898
695.625	219.229
695.753	216.458
695.881	216.373
696.010	217.237
696.138	219.737
696.266	216.042
696.394	216.746
696.522	217.619
696.650	214.627
696.778	215.949
696.906	216.898
697.035	213.314
697.163	211.737
697.291	213.314
697.419	213.754
697.547	210.483
697.675	211.347
697.803	212.907
697.931	211.797
698.060	211.271
698.188	210.034
698.316	209.568
698.444	209.339
698.572	208.347
698.700	210.932
698.828	210.746
698.956	203.364
699.085	206.119
699.213	208.263
699.341	205.559
699.469	205.136
699.597	206.610
699.725	205.907
699.853	204.195
699.981	203.983
700.110	206.314
700.238	208.449
700.366	204.720
700.494	201.992
700.622	200.331
700.750	200.881
700.878	202.017
701.006	203.831
701.135	202.534
701.263	202.314
701.391	201.432
701.519	197.627
701.647	199.754
701.775	200.839
701.903	200.161
702.031	199.203
702.160	199.203
702.288	200.805
702.416	198.839
702.544	197.542
702.672	198.017
702.800	198.822
702.928	195.542
703.056	199.271
703.185	197.415
703.313	195.636
703.441	198.712
703.569	194.271
703.697	198.186
703.825	191.822
703.953	196.127
704.081	193.203
704.210	194.178
704.338	196.051
704.466	188.008
704.594	194.805
704.722	193.110
704.850	194.542
704.978	193.754
705.106	191.280
705.235	189.754
705.363	192.178
705.491	192.864
705.619	190.576
705.747	192.661
705.875	192.492
706.003	191.483
706.131	190.203
706.260	187.932
706.388	189.415
706.516	190.051
706.644	190.153
706.772	186.754
706.900	186.203
707.028	188.898
707.156	188.042
707.285	188.831
707.413	186.890
707.541	183.364
707.669	183.729
707.797	184.839
707.925	184.492
708.053	185.059
708.181	186.237
708.310	184.195
708.438	182.195
708.566	183.661
708.694	183.314
708.822	184.093
708.950	183.153
709.078	180.102
709.206	181.119
709.335	179.983
709.463	180.703
709.591	181.525
709.719	181.559
709.847	180.220
709.975	178.627
710.103	181.102
710.231	179.475
710.360	178.042
710.488	176.890
710.616	179.263
710.744	179.517
710.872	177.263
711.000	176.695
711.128	175.881
711.256	176.034
711.385	176.288
711.513	176.449
711.641	174.517
711.769	177.890
711.897	176.975
712.025	172.661
712.153	175.441
712.281	176.415
712.410	173.525
712.538	172.932
712.666	172.398
712.794	172.051
712.922	174.322
713.050	172.975
713.178	171.415
713.306	171.237
713.435	173.907
713.563	170.212
713.691	173.153
713.819	171.898
713.947	170.322
714.075	170.958
714.203	170.932
714.331	172.797
714.460	170.068
714.588	169.653
714.716	168.492
714.844	168.780
714.972	166.102
715.100	170.127
715.228	171.492
715.356	167.508
715.485	170.076
715.613	166.746
715.741	167.263
715.869	167.246
715.997	167.432
716.125	162.051
716.253	164.627
716.381	165.288
716.510	165.661
716.638	165.364
716.766	163.695
716.894	165.203
717.022	162.881
717.150	163.144
717.278	164.203
717.406	166.042
717.535	164.000
717.663	164.220
717.791	162.441
717.919	164.008
718.047	161.492
718.175	163.407
718.303	162.034
718.431	161.720
718.560	164.907
718.688	163.144
718.816	161.636
718.944	161.653
719.072	160.025
719.200	161.508
719.328	160.161
719.456	158.415
719.585	160.517
719.713	160.475
719.841	159.144
719.969	158.585
720.097	157.534
720.225	158.797
720.353	160.220
720.481	159.161
720.610	159.322
720.738	159.220
720.866	159.907
720.994	155.390
721.122	159.746
721.250	158.542
721.378	158.686
721.506	157.686
721.635	158.720
721.763	157.932
721.891	158.271
722.019	156.153
722.147	157.076
722.275	158.161
722.403	152.941
722.531	155.432
722.660	155.763
722.788	155.492
722.916	156.034
723.044	154.517
723.172	153.076
723.300	152.458
723.428	150.246
723.556	156.449
723.685	153.398
723.813	155.924
723.941	153.136
724.069	151.441
724.197	152.534
724.325	153.619
724.453	153.839
724.581	151.898
724.710	151.059
724.838	152.229
724.966	151.966
725.094	150.992
725.222	148.508
725.350	147.898
725.478	152.551
725.606	149.771
725.735	152.356
725.863	149.441
725.991	148.958
726.119	149.703
726.247	148.593
726.375	147.907
726.503	150.398
726.631	148.695
726.760	148.619
726.888	150.432
727.016	147.373
727.144	148.220
727.272	146.441
727.400	146.017
727.528	145.644
727.656	148.008
727.785	148.517
727.913	145.737
728.041	148.576
728.169	145.644
728.297	143.127
728.425	144.076
728.553	144.610
728.681	145.975
728.810	145.229
728.938	144.381
729.066	145.034
729.194	144.593
729.322	147.551
729.450	142.678
729.578	143.686
729.706	143.466
729.835	143.653
729.963	145.517
730.091	143.085
730.219	141.695
730.347	141.949
730.475	142.390
730.603	142.661
730.731	141.915
730.860	142.797
730.988	141.814
731.116	140.534
731.244	143.042
731.372	140.890
731.500	140.932
731.628	139.890
731.756	142.169
731.885	140.398
732.013	139.347
732.141	139.203
732.269	139.144
732.397	138.992
732.525	140.720
732.653	139.322
732.781	142.008
732.910	138.034
733.038	137.644
733.166	139.475
733.294	138.568
733.422	139.703
733.550	137.712
733.678	136.373
733.806	140.432
733.935	136.932
734.063	136.695
734.191	139.627
734.319	137.788
734.447	137.178
734.575	135.907
734.703	137.483
734.831	136.051
734.960	136.737
735.088	137.364
735.216	136.915
735.344	136.627
735.472	136.127
735.600	135.653
735.728	134.254
735.856	136.153
735.985	134.678
736.113	134.161
736.241	134.873
736.369	136.432
736.497	136.297
736.625	134.627
736.753	136.771
736.881	136.737
737.010	132.754
737.138	134.644
737.266	133.237
737.394	133.619
737.522	133.737
737.650	135.161
737.778	133.424
737.906	132.364
738.035	134.305
738.163	132.797
738.291	134.271
738.419	132.483
738.547	131.415
738.675	131.729
738.803	133.653
738.931	132.449
739.060	132.042
739.188	132.585
739.316	132.398
739.444	131.415
739.572	130.983
739.700	131.966
739.828	130.534
739.956	130.864
740.085	131.466
740.213	130.025
740.341	130.551
740.469	132.381
740.597	130.797
740.725	131.881
740.853	131.585
740.981	130.975
741.110	130.661
741.238	131.788
741.366	129.305
741.494	129.373
741.622	129.169
741.750	130.212
741.878	130.737
742.006	129.814
742.135	128.610
742.263	128.508
742.391	128.229
742.519	129.407
742.647	129.525
742.775	129.636
742.903	129.254
743.031	127.390
743.160	126.847
743.288	127.958
743.416	129.068
743.544	126.949
743.672	128.653
743.800	128.051
743.928	127.246
744.056	125.661
744.185	127.076
744.313	126.958
744.441	128.763
744.569	125.907
744.697	127.229
744.825	126.814
744.953	126.932
745.081	126.831
745.210	128.288
745.338	125.517
745.466	126.831
745.594	125.559
745.722	126.161
745.850	126.203
745.978	124.644
746.106	124.992
746.235	126.254
746.363	126.678
746.491	124.127
746.619	124.695
746.747	125.500
746.875	125.992
747.003	124.898
747.131	125.373
747.260	125.093
747.388	126.636
747.516	127.034
747.644	123.585
747.772	124.127
747.900	122.890
748.028	123.178
748.156	123.517
748.285	126.466
748.413	125.873
748.541	122.220
748.669	123.780
748.797	123.890
748.925	122.975
749.053	120.771
749.181	122.508
749.310	122.390
749.438	123.347
749.566	122.407
749.694	123.288
749.822	123.195
749.950	123.517
750.078	122.695
750.206	122.119
750.335	122.356
750.463	122.890
750.591	123.254
750.719	122.686
750.847	121.712
750.975	122.381
751.103	120.576
751.231	122.525
751.360	123.339
751.488	121.619
751.616	121.051
751.744	122.475
751.872	121.669
752.000	120.805
752.128	122.008
752.256	121.508
752.385	121.136
752.513	120.915
752.641	120.246
752.769	119.915
752.897	120.805
753.025	120.881
753.153	120.703
753.281	121.110
753.410	120.042
753.538	120.407
753.666	121.347
753.794	120.237
753.922	120.161
754.050	118.746
754.178	119.212
754.306	119.568
754.435	118.695
754.563	121.593
754.691	120.042
754.819	119.805
754.947	120.619
755.075	119.458
755.203	120.746
755.331	119.873
755.460	119.602
755.588	119.517
755.716	120.280
755.844	119.381
755.972	120.525
756.100	118.627
756.228	120.085
756.356	117.924
756.485	118.415
756.613	119.517
756.741	119.246
756.869	118.466
756.997	118.364
757.125	119.449
757.253	118.517
757.381	118.051
757.510	119.475
757.638	119.754
757.766	119.856
757.894	118.127
758.022	118.229
758.150	117.958
758.278	119.347
758.406	118.356
758.535	117.415
758.663	118.263
758.791	117.085
758.919	117.890
759.047	116.983
759.175	119.356
759.303	118.483
759.431	117.136
759.560	117.000
759.688	120.127
759.816	117.737
759.944	118.644
760.072	116.898
760.200	116.958
760.328	117.644
760.456	117.788
760.585	116.771
760.713	117.585
760.841	116.881
760.969	117.246
761.097	115.958
761.225	117.746
761.353	118.203
761.481	118.678
761.610	117.102
761.738	117.644
761.866	117.466
761.994	115.737
762.122	116.534
762.250	116.288
762.378	115.949
762.506	115.237
762.635	118.186
762.763	116.686
762.891	116.381
763.019	115.754
763.147	117.161
763.275	116.331
763.403	115.814
763.531	115.203
763.660	116.153
763.788	115.695
763.916	116.322
764.044	116.864
764.172	116.627
764.300	116.339
764.428	115.627
764.556	116.508
764.685	114.568
764.813	114.627
764.941	114.720
765.069	116.246
765.197	115.797
765.325	115.475
765.453	116.178
765.581	115.729
765.710	115.042
765.838	114.390
765.966	114.119
766.094	116.008
766.222	114.127
766.350	112.881
766.478	113.983
766.606	113.915
766.735	113.864
766.863	114.856
766.991	114.271
767.119	114.271
767.247	115.034
767.375	114.271
767.503	114.831
767.631	114.161
767.760	113.025
767.888	113.339
768.016	113.525
768.144	113.975
768.272	114.415
768.400	113.763
768.528	114.441
768.656	113.983
768.785	113.441
768.913	114.110
769.041	114.102
769.169	112.763
769.297	114.280
769.425	112.678
769.553	112.398
769.681	113.051
769.810	115.203
769.938	111.958
770.066	112.949
770.194	113.314
770.322	113.093
770.450	113.271
770.578	113.220
770.706	111.424
770.835	111.737
770.963	112.847
771.091	112.619
771.219	114.373
771.347	113.492
771.475	112.712
771.603	112.347
771.731	112.898
771.860	112.975
771.988	113.220
772.116	113.076
772.244	111.686
772.372	111.449
772.500	112.237
772.628	113.246
772.756	112.178
772.885	110.805
773.013	112.915
773.141	111.186
773.269	111.186
773.397	111.924
773.525	111.949
773.653	112.237
773.781	111.186
773.910	111.297
774.038	110.763
774.166	111.771
774.294	111.203
774.422	110.746
774.550	111.169
774.678	112.042
774.806	111.856
774.935	110.966
775.063	111.025
775.191	110.559
775.319	110.288
775.447	111.203
775.575	111.881
775.703	111.246
775.831	110.703
775.960	110.051
776.088	110.636
776.216	111.449
776.344	110.542
776.472	111.686
776.600	110.517
776.728	110.839
776.856	110.881
776.985	111.297
777.113	110.542
777.241	111.127
777.369	110.915
777.497	109.839
777.625	110.678
777.753	109.805
777.881	110.517
778.010	110.144
778.138	109.254
778.266	109.576
778.394	110.178
778.522	112.025
778.650	111.500
778.778	110.246
778.906	110.593
779.035	110.771
779.163	109.847
779.291	110.788
779.419	109.686
779.547	109.720
779.675	110.331
779.803	110.856
779.931	110.195
780.060	110.059
780.188	110.314
780.316	111.212
780.444	110.907
780.572	109.390
780.700	109.653
780.828	110.178
780.956	109.873
781.085	109.237
781.213	109.669
781.341	109.831
781.469	110.585
781.597	110.686
781.725	109.966
781.853	109.517
781.981	108.822
782.110	109.924
782.238	108.831
782.366	109.102
782.494	109.068
782.622	109.381
782.750	110.814
782.878	108.881
783.006	111.034
783.135	110.331
783.263	109.246
783.391	108.890
783.519	109.720
783.647	108.415
783.775	109.220
783.903	109.000
784.031	108.449
784.160	108.568
784.288	108.763
784.416	109.059
784.544	108.644
784.672	107.881
784.800	108.322
784.928	109.347
785.056	108.000
785.185	109.051
785.313	108.890
785.441	109.008
785.569	109.720
785.697	109.263
785.825	108.525
785.953	109.263
786.081	108.983
786.210	108.136
786.338	108.542
786.466	108.466
786.594	107.771
786.722	108.915
786.850	108.873
786.978	108.500
787.106	108.458
787.235	108.636
787.363	108.008
787.491	107.822
787.619	109.161
787.747	108.424
787.875	108.653
788.003	107.746
788.131	106.924
788.260	108.381
788.388	107.822
788.516	107.576
788.644	108.669
788.772	107.237
788.900	109.322
789.028	107.212
789.156	108.398
789.285	108.466
789.413	107.839
789.541	108.373
789.669	107.203
789.797	107.093
789.925	108.119
790.053	108.602
790.181	108.254
790.310	107.483
790.438	107.398
790.566	107.661
790.694	107.831
790.822	107.686
790.950	108.534
791.078	108.339
791.206	107.025
791.335	107.508
791.463	108.102
791.591	106.695
791.719	107.746
791.847	107.534
791.975	107.280
792.103	107.424
792.231	108.881
792.360	108.356
792.488	106.636
792.616	107.695
792.744	107.136
792.872	106.771
793.000	106.737
793.128	107.644
793.256	107.559
793.385	107.161
793.513	108.119
793.641	107.729
793.769	106.720
793.897	107.737
794.025	107.424
794.153	107.517
794.281	107.068
794.410	107.017
794.538	107.610
794.666	107.119
794.794	107.102
794.922	108.000
795.050	107.432
795.178	107.186
795.306	105.322
795.435	106.703
795.563	106.161
795.691	105.864
795.819	106.246
795.947	106.415
796.075	107.076
796.203	108.161
796.331	106.712
796.460	107.144
796.588	106.686
796.716	107.780
796.844	107.136
796.972	107.924
797.100	107.008
797.228	107.619
797.356	108.093
797.485	106.983
797.613	106.237
797.741	107.017
797.869	107.271
797.997	107.034
798.125	107.373
798.253	105.712
798.381	106.424
798.510	106.322
798.638	107.085
798.766	106.407
798.894	105.797
799.022	107.161
799.150	106.788
799.278	105.678
799.406	107.585
799.535	107.254
799.663	106.831
799.791	105.873
799.919	106.178
800.047	107.314
800.175	105.983
800.303	106.525
800.431	106.144
800.560	105.398
800.688	105.585
800.816	106.475
800.944	105.737
801.072	106.966
801.200	106.695
801.328	106.059
801.456	106.542
801.585	106.966
801.713	106.881
801.841	106.864
801.969	106.864
802.097	105.390
802.225	105.492
802.353	106.178
802.481	105.932
802.610	106.856
802.738	105.983
802.866	106.271
802.994	105.627
803.122	106.288
803.250	106.958
803.378	106.025
803.506	106.169
803.635	107.051
803.763	105.907
803.891	107.212
804.019	106.847
804.147	107.644
804.275	106.229
804.403	106.102
804.531	105.331
804.660	105.822
804.788	106.229
804.916	106.263
805.044	105.449
805.172	106.347
805.300	105.059
805.428	106.737
805.556	105.314
805.685	106.525
805.813	106.737
805.941	106.017
806.069	106.907
806.197	106.568
806.325	105.924
806.453	106.127
806.581	105.644
806.710	105.822
806.838	105.017
806.966	105.525
807.094	105.339
807.222	106.051
807.350	105.890
807.478	105.559
807.606	105.017
807.735	105.297
807.863	107.042
807.991	105.958
808.119	105.924
808.247	105.441
808.375	105.814
808.503	105.483
808.631	106.746
808.760	106.119
808.888	105.593
809.016	106.686
809.144	106.720
809.272	106.839
809.400	106.322
809.528	105.703
809.656	105.136
809.785	105.161
809.913	105.331
810.041	106.102
810.169	105.475
810.297	105.263
810.425	105.763
810.553	105.373
810.681	105.907
810.810	105.619
810.938	106.195
811.066	104.347
811.194	105.076
811.322	105.254
811.450	105.661
811.578	105.568
811.706	105.559
811.835	105.415
811.963	105.102
812.091	106.119
812.219	105.847
812.347	105.466
812.475	105.898
812.603	105.763
812.731	104.178
812.860	105.424
812.988	105.127
813.116	105.136
813.244	105.864
813.372	105.568
813.500	106.093
813.628	106.500
813.756	104.932
813.885	105.805
814.013	106.220
814.141	106.314
814.269	105.661
814.397	106.381
814.525	104.983
814.653	105.703
814.781	104.424
814.910	105.788
815.038	106.568
815.166	106.729
815.294	105.873
815.422	106.119
815.550	105.305
815.678	105.297
815.806	106.169
815.935	104.619
816.063	105.153
816.191	105.314
816.319	105.305
816.447	105.653
816.575	105.941
816.703	105.771
816.831	105.449
816.960	106.475
817.088	105.653
817.216	106.059
817.344	105.763
817.472	106.373
817.600	105.508
817.728	105.186
817.856	105.720
817.985	104.568
818.113	105.610
818.241	105.907
818.369	105.178
818.497	106.110
818.625	105.415
818.753	104.415
818.881	105.398
819.010	105.102
819.138	105.169
819.266	104.593
819.394	104.729
819.522	103.703
819.650	106.314
819.778	104.831
819.906	105.500
820.035	105.653
820.163	105.203
820.291	104.203
820.419	104.593
820.547	105.525
820.675	103.763
820.803	105.119
820.931	104.864
821.060	104.093
821.188	105.331
821.316	104.551
821.444	105.000
821.572	105.093
821.700	105.246
821.828	105.568
821.956	105.161
822.085	105.093
822.213	105.390
822.341	104.975
822.469	104.356
822.597	103.983
822.725	104.737
822.853	105.610
822.981	104.534
823.110	105.653
823.238	104.136
823.366	105.119
823.494	103.763
823.622	104.169
823.750	104.517
823.878	103.881
824.006	105.610
824.135	105.085
824.263	105.119
824.391	103.822
824.519	105.568
824.647	105.602
824.775	105.093
824.903	105.407
825.031	105.932
825.160	105.644
825.288	104.619
825.416	105.331
825.544	104.322
825.672	104.788
825.800	104.822
825.928	105.373
826.056	104.907
826.185	104.686
826.313	104.720
826.441	104.364
826.569	104.619
826.697	105.144
826.825	104.381
826.953	105.712
827.081	104.627
827.210	105.246
827.338	103.924
827.466	103.678
827.594	104.644
827.722	105.356
827.850	104.932
827.978	103.568
828.106	104.627
828.235	105.390
828.363	104.551
828.491	104.525
828.619	104.576
828.747	105.068
828.875	104.229
829.003	105.907
829.131	105.720
829.260	105.593
829.388	104.780
829.516	105.339
829.644	104.627
829.772	105.237
829.900	104.364
830.028	104.644
830.156	104.542
830.285	103.831
830.413	104.576
830.541	105.178
830.669	104.381
830.797	104.169
830.925	104.373
831.053	104.136
831.181	104.525
831.310	105.025
831.438	104.729
831.566	104.983
831.694	104.127
831.822	104.110
831.950	104.941
832.078	105.093
832.206	104.093
832.335	104.127
832.463	105.542
832.591	104.331
832.719	104.093
832.847	104.559
832.975	104.602
833.103	104.966
833.231	104.780
833.360	104.924
833.488	104.136
833.616	104.424
833.744	104.314
833.872	105.314
834.000	105.466
834.128	104.051
834.256	104.263
834.385	103.585
834.513	105.534
834.641	103.559
834.769	104.178
834.897	105.000
835.025	104.076
835.153	103.576
835.281	104.559
835.410	104.881
835.538	104.602
835.666	104.737
835.794	104.644
835.922	104.847
836.050	104.347
836.178	104.000
836.306	104.093
836.435	104.398
836.563	103.246
836.691	104.458
836.819	105.381
836.947	105.458
837.075	103.763
837.203	103.398
837.331	104.458
837.460	104.169
837.588	103.746
837.716	104.381
837.844	104.831
837.972	104.008
838.100	104.059
838.228	103.669
838.356	103.085
838.485	102.805
838.613	103.890
838.741	104.093
838.869	104.339
838.997	104.390
839.125	102.627
839.253	103.136
839.381	104.186
839.510	103.729
839.638	103.076
839.766	103.602
839.894	103.136
840.022	104.992
840.150	104.356
840.278	103.161
840.406	104.119
840.535	104.441
840.663	103.169
840.791	103.076
840.919	103.839
841.047	103.305
841.175	104.136
841.303	103.780
841.431	103.576
841.560	103.729
841.688	103.746
841.816	104.314
841.944	103.093
842.072	104.017
842.200	103.542
842.328	104.034
842.456	104.085
842.585	104.110
842.713	104.110
842.841	103.720
842.969	104.288
843.097	103.907
843.225	103.297
843.353	103.483
843.481	102.831
843.610	104.034
843.738	102.432
843.866	103.966
