Lampe_Signal_0_at_679.99nm_cut_at_1286.00Y_01.dat
24.01.2024
11:22:56
cut middle at Y: 1286.00
top cursor: 1345 down cursor: 1227 mean of: 118 lines , 2560 datapoints
wavelength(nm)	intensity[arb. units]
515.994	330.602
516.122	319.636
516.250	310.432
516.378	311.737
516.506	309.831
516.635	312.593
516.763	314.331
516.891	312.568
517.019	313.814
517.147	312.169
517.275	317.983
517.403	316.644
517.531	319.483
517.660	313.703
517.788	316.627
517.916	318.364
518.044	315.390
518.172	321.754
518.300	317.551
518.428	318.703
518.556	315.364
518.685	320.678
518.813	322.212
518.941	323.873
519.069	323.034
519.197	320.161
519.325	325.746
519.453	323.144
519.581	325.059
519.710	323.746
519.838	323.788
519.966	325.322
520.094	331.568
520.222	323.712
520.350	331.178
520.478	334.127
520.606	334.093
520.735	330.000
520.863	331.686
520.991	329.500
521.119	332.924
521.247	330.780
521.375	332.042
521.503	338.669
521.631	338.407
521.760	333.254
521.888	341.093
522.016	338.720
522.144	343.508
522.272	343.381
522.400	344.254
522.528	344.331
522.656	341.136
522.785	349.237
522.913	346.729
523.041	344.008
523.169	340.263
523.297	344.661
523.425	347.873
523.553	340.864
523.681	345.780
523.810	345.975
523.938	354.576
524.066	346.246
524.194	348.551
524.322	351.534
524.450	341.822
524.578	351.508
524.706	348.186
524.835	347.822
524.963	348.907
525.091	349.636
525.219	348.873
525.347	345.898
525.475	349.246
525.603	348.805
525.731	346.288
525.860	347.644
525.988	345.873
526.116	348.093
526.244	350.746
526.372	347.280
526.500	350.220
526.628	347.169
526.756	348.449
526.885	350.661
527.013	346.949
527.141	352.915
527.269	348.822
527.397	356.042
527.525	351.703
527.653	354.093
527.781	351.492
527.910	353.229
528.038	352.347
528.166	354.025
528.294	355.576
528.422	358.263
528.550	352.347
528.678	357.161
528.806	356.669
528.935	356.186
529.063	352.958
529.191	355.534
529.319	361.034
529.447	356.144
529.575	358.551
529.703	359.331
529.831	361.432
529.960	358.542
530.088	361.780
530.216	360.212
530.344	356.856
530.472	363.169
530.600	357.347
530.728	363.763
530.856	361.890
530.985	361.551
531.113	362.907
531.241	365.161
531.369	362.042
531.497	365.356
531.625	365.356
531.753	362.169
531.881	364.017
532.010	361.364
532.138	362.864
532.266	355.398
532.394	364.788
532.522	361.729
532.650	357.161
532.778	364.992
532.906	359.771
533.035	362.771
533.163	358.297
533.291	359.466
533.419	359.703
533.547	365.110
533.675	356.288
533.803	356.127
533.931	360.475
534.060	362.025
534.188	362.703
534.316	359.136
534.444	358.364
534.572	363.246
534.700	362.780
534.828	365.619
534.956	361.669
535.085	365.500
535.213	362.475
535.341	364.008
535.469	364.466
535.597	367.347
535.725	371.653
535.853	368.076
535.981	368.051
536.110	376.856
536.238	366.873
536.366	371.381
536.494	368.975
536.622	376.161
536.750	368.246
536.878	375.000
537.006	369.085
537.135	375.915
537.263	376.873
537.391	377.627
537.519	376.280
537.647	382.449
537.775	374.220
537.903	376.475
538.031	379.695
538.160	375.280
538.288	381.339
538.416	381.364
538.544	383.508
538.672	380.169
538.800	380.780
538.928	384.220
539.056	382.398
539.185	379.805
539.313	382.119
539.441	385.034
539.569	389.780
539.697	385.653
539.825	388.178
539.953	385.992
540.081	383.712
540.210	385.322
540.338	390.661
540.466	385.356
540.594	382.737
540.722	378.898
540.850	382.229
540.978	381.610
541.106	384.364
541.235	387.695
541.363	386.449
541.491	386.568
541.619	380.983
541.747	381.619
541.875	384.288
542.003	382.364
542.131	385.627
542.260	389.992
542.388	387.669
542.516	390.720
542.644	386.983
542.772	386.051
542.900	388.780
543.028	387.797
543.156	387.720
543.285	390.593
543.413	385.051
543.541	393.008
543.669	387.763
543.797	388.703
543.925	388.424
544.053	385.483
544.181	390.288
544.310	387.500
544.438	389.042
544.566	387.881
544.694	386.390
544.822	386.169
544.950	393.678
545.078	387.576
545.206	384.051
545.335	389.551
545.463	384.729
545.591	389.627
545.719	391.186
545.847	388.746
545.975	385.627
546.103	386.602
546.231	387.805
546.360	386.119
546.488	387.686
546.616	390.780
546.744	387.822
546.872	384.831
547.000	389.127
547.128	391.653
547.256	387.958
547.385	383.000
547.513	383.237
547.641	384.153
547.769	389.729
547.897	383.534
548.025	386.178
548.153	388.373
548.281	385.975
548.410	381.186
548.538	386.525
548.666	385.542
548.794	382.788
548.922	383.390
549.050	391.992
549.178	384.551
549.306	385.763
549.435	387.669
549.563	385.246
549.691	382.186
549.819	389.161
549.947	385.873
550.075	382.237
550.203	382.441
550.331	383.890
550.460	387.475
550.588	389.119
550.716	385.822
550.844	386.949
550.972	382.347
551.100	385.915
551.228	386.331
551.356	389.059
551.485	385.271
551.613	386.898
551.741	383.085
551.869	382.051
551.997	384.458
552.125	380.178
552.253	383.873
552.381	378.068
552.510	380.093
552.638	375.864
552.766	380.398
552.894	378.932
553.022	383.593
553.150	376.585
553.278	378.610
553.406	378.237
553.535	377.712
553.663	375.797
553.791	372.373
553.919	377.161
554.047	374.331
554.175	370.924
554.303	371.881
554.431	370.720
554.560	376.534
554.688	375.076
554.816	373.144
554.944	376.085
555.072	373.932
555.200	373.237
555.328	368.763
555.456	375.042
555.585	371.610
555.713	367.593
555.841	373.220
555.969	373.178
556.097	375.644
556.225	368.898
556.353	373.797
556.481	377.314
556.610	376.907
556.738	369.517
556.866	372.051
556.994	375.517
557.122	371.347
557.250	375.034
557.378	376.822
557.506	371.703
557.635	370.492
557.763	370.008
557.891	374.805
558.019	371.364
558.147	371.695
558.275	372.068
558.403	374.237
558.531	371.331
558.660	369.161
558.788	366.712
558.916	370.110
559.044	368.178
559.172	371.797
559.300	374.364
559.428	366.314
559.556	371.466
559.685	370.085
559.813	366.890
559.941	368.788
560.069	368.576
560.197	368.407
560.325	372.203
560.453	367.390
560.581	368.559
560.710	366.119
560.838	358.288
560.966	368.034
561.094	364.237
561.222	365.322
561.350	366.449
561.478	359.051
561.606	367.025
561.735	361.653
561.863	363.347
561.991	360.432
562.119	361.568
562.247	363.678
562.375	361.178
562.503	363.068
562.631	360.364
562.760	363.381
562.888	358.610
563.016	359.042
563.144	363.992
563.272	360.542
563.400	360.610
563.528	354.068
563.656	359.407
563.785	360.322
563.913	354.992
564.041	358.229
564.169	357.924
564.297	360.856
564.425	360.297
564.553	365.483
564.681	361.712
564.810	363.763
564.938	356.771
565.066	359.254
565.194	359.593
565.322	362.331
565.450	361.483
565.578	363.119
565.706	357.992
565.835	361.356
565.963	359.856
566.091	359.441
566.219	362.585
566.347	360.780
566.475	360.186
566.603	363.754
566.731	366.475
566.860	362.814
566.988	361.542
567.116	362.932
567.244	361.975
567.372	366.873
567.500	370.085
567.628	369.559
567.756	365.483
567.885	364.441
568.013	363.780
568.141	364.907
568.269	366.322
568.397	364.703
568.525	367.585
568.653	366.475
568.781	363.339
568.910	371.297
569.038	368.254
569.166	367.602
569.294	363.737
569.422	368.627
569.550	364.288
569.678	367.153
569.806	363.949
569.935	365.322
570.063	368.034
570.191	370.051
570.319	368.712
570.447	369.576
570.575	367.500
570.703	366.847
570.831	369.110
570.960	371.492
571.088	369.949
571.216	365.212
571.344	365.492
571.472	368.297
571.600	371.966
571.728	367.780
571.856	363.966
571.985	368.576
572.113	369.517
572.241	366.653
572.369	370.517
572.497	367.492
572.625	369.780
572.753	371.686
572.881	372.119
573.010	372.034
573.138	369.729
573.266	373.161
573.394	373.212
573.522	369.661
573.650	362.822
573.778	368.390
573.906	368.873
574.035	368.975
574.163	364.839
574.291	366.305
574.419	372.178
574.547	371.449
574.675	369.661
574.803	372.042
574.931	369.915
575.060	369.915
575.188	369.958
575.316	369.873
575.444	367.619
575.572	367.407
575.700	367.415
575.828	370.975
575.956	369.076
576.085	370.212
576.213	368.907
576.341	368.805
576.469	368.542
576.597	364.102
576.725	365.415
576.853	365.373
576.981	367.076
577.110	362.356
577.238	372.076
577.366	363.331
577.494	364.280
577.622	361.669
577.750	364.390
577.878	359.856
578.006	364.847
578.135	367.568
578.263	364.297
578.391	365.186
578.519	364.678
578.647	362.831
578.775	363.017
578.903	363.915
579.031	366.814
579.160	365.797
579.288	363.025
579.416	365.780
579.544	361.644
579.672	358.339
579.800	357.729
579.928	359.653
580.056	357.881
580.185	364.364
580.313	364.093
580.441	363.593
580.569	358.678
580.697	363.085
580.825	366.424
580.953	366.102
581.081	366.466
581.210	363.517
581.338	363.881
581.466	366.644
581.594	368.788
581.722	361.941
581.850	364.839
581.978	364.246
582.106	365.576
582.235	368.127
582.363	366.178
582.491	374.263
582.619	364.873
582.747	369.907
582.875	371.110
583.003	364.042
583.131	370.966
583.260	368.839
583.388	370.102
583.516	372.576
583.644	370.263
583.772	371.669
583.900	373.110
584.028	372.297
584.156	371.398
584.285	374.025
584.413	377.195
584.541	377.924
584.669	376.610
584.797	375.059
584.925	373.949
585.053	374.551
585.181	377.297
585.310	377.110
585.438	380.085
585.566	378.746
585.694	380.525
585.822	379.864
585.950	379.602
586.078	381.144
586.206	384.102
586.335	378.805
586.463	385.000
586.591	385.780
586.719	379.593
586.847	381.805
586.975	384.322
587.103	382.229
587.231	386.483
587.360	381.932
587.488	382.602
587.616	380.424
587.744	388.025
587.872	379.822
588.000	380.076
588.128	386.508
588.256	381.220
588.385	384.263
588.513	384.449
588.641	381.653
588.769	383.814
588.897	379.102
589.025	382.059
589.153	385.636
589.281	381.263
589.410	382.364
589.538	385.814
589.666	379.771
589.794	386.407
589.922	386.720
590.050	383.619
590.178	380.737
590.306	378.669
590.435	383.932
590.563	378.941
590.691	382.356
590.819	380.822
590.947	389.347
591.075	378.161
591.203	379.568
591.331	383.017
591.460	383.398
591.588	380.653
591.716	387.051
591.844	385.441
591.972	382.432
592.100	379.000
592.228	382.483
592.356	378.305
592.485	378.746
592.613	378.356
592.741	378.297
592.869	379.593
592.997	384.186
593.125	383.788
593.253	385.508
593.381	380.966
593.510	383.347
593.638	387.364
593.766	385.585
593.894	383.466
594.022	383.525
594.150	383.831
594.278	388.025
594.406	384.288
594.535	385.119
594.663	389.229
594.791	383.695
594.919	385.195
595.047	390.297
595.175	386.839
595.303	383.992
595.431	387.780
595.560	392.703
595.688	388.305
595.816	385.559
595.944	384.864
596.072	387.000
596.200	387.263
596.328	391.364
596.456	387.771
596.585	385.788
596.713	391.424
596.841	387.364
596.969	390.873
597.097	381.458
597.225	386.254
597.353	390.229
597.481	384.898
597.610	388.983
597.738	391.339
597.866	384.610
597.994	386.992
598.122	390.805
598.250	388.102
598.378	388.220
598.506	388.720
598.635	390.771
598.763	385.525
598.891	388.475
599.019	386.314
599.147	387.220
599.275	388.898
599.403	390.780
599.531	390.788
599.660	387.483
599.788	389.136
599.916	386.254
600.044	386.627
600.172	386.814
600.300	388.025
600.428	392.864
600.556	389.373
600.685	389.992
600.813	386.559
600.941	392.805
601.069	390.881
601.197	393.788
601.325	392.008
601.453	391.610
601.581	391.703
601.710	392.347
601.838	394.847
601.966	393.042
602.094	392.432
602.222	390.805
602.350	392.178
602.478	392.610
602.606	398.746
602.735	394.559
602.863	396.525
602.991	399.144
603.119	394.636
603.247	394.644
603.375	398.110
603.503	395.254
603.631	400.127
603.760	399.407
603.888	397.975
604.016	394.517
604.144	394.458
604.272	396.153
604.400	393.915
604.528	397.059
604.656	398.915
604.785	399.466
604.913	408.585
605.041	396.898
605.169	398.619
605.297	395.525
605.425	401.195
605.553	399.432
605.681	394.585
605.810	400.814
605.938	395.686
606.066	397.754
606.194	400.347
606.322	399.305
606.450	399.754
606.578	401.068
606.706	397.975
606.835	398.110
606.963	401.441
607.091	400.237
607.219	402.068
607.347	400.636
607.475	403.119
607.603	401.237
607.731	398.508
607.860	395.627
607.988	403.347
608.116	396.542
608.244	396.169
608.372	400.237
608.500	398.424
608.628	399.458
608.756	395.008
608.885	399.305
609.013	399.466
609.141	395.788
609.269	397.551
609.397	397.975
609.525	398.364
609.653	394.517
609.781	393.585
609.910	394.568
610.038	390.093
610.166	392.703
610.294	394.780
610.422	397.958
610.550	396.644
610.678	395.686
610.806	397.458
610.935	399.229
611.063	396.322
611.191	394.373
611.319	393.653
611.447	392.636
611.575	388.331
611.703	395.763
611.831	393.186
611.960	394.042
612.088	391.559
612.216	390.585
612.344	393.831
612.472	388.585
612.600	396.644
612.728	386.331
612.856	396.008
612.985	391.797
613.113	389.771
613.241	395.839
613.369	385.492
613.497	389.695
613.625	390.797
613.753	385.924
613.881	389.975
614.010	389.220
614.138	384.636
614.266	389.169
614.394	386.551
614.522	385.178
614.650	387.602
614.778	382.814
614.906	388.059
615.035	387.347
615.163	383.364
615.291	387.703
615.419	388.212
615.547	384.008
615.675	385.517
615.803	386.551
615.931	388.127
616.060	387.636
616.188	388.729
616.316	381.831
616.444	381.093
616.572	384.432
616.700	386.500
616.828	390.271
616.956	388.432
617.085	392.025
617.213	387.703
617.341	387.076
617.469	389.975
617.597	390.508
617.725	387.297
617.853	385.508
617.981	382.975
618.110	385.585
618.238	385.754
618.366	388.669
618.494	386.898
618.622	386.754
618.750	386.712
618.878	386.102
619.006	385.712
619.135	387.034
619.263	388.746
619.391	388.636
619.519	385.373
619.647	386.220
619.775	391.602
619.903	393.678
620.031	387.720
620.160	389.000
620.288	387.627
620.416	390.898
620.544	390.839
620.672	392.008
620.800	388.305
620.928	393.085
621.056	394.331
621.185	387.839
621.313	390.305
621.441	387.305
621.569	391.500
621.697	388.322
621.825	395.314
621.953	389.500
622.081	393.364
622.210	388.958
622.338	388.347
622.466	392.042
622.594	392.873
622.722	392.585
622.850	390.492
622.978	394.873
623.106	391.525
623.235	391.263
623.363	393.780
623.491	391.525
623.619	388.508
623.747	388.542
623.875	385.364
624.003	386.619
624.131	385.390
624.260	386.627
624.388	390.763
624.516	388.246
624.644	387.424
624.772	389.805
624.900	386.805
625.028	386.441
625.156	390.059
625.285	386.746
625.413	388.797
625.541	387.958
625.669	388.331
625.797	390.297
625.925	386.025
626.053	381.144
626.181	385.475
626.310	382.763
626.438	385.780
626.566	383.229
626.694	383.873
626.822	379.780
626.950	385.517
627.078	380.297
627.206	381.941
627.335	380.441
627.463	382.314
627.591	379.356
627.719	378.356
627.847	377.669
627.975	384.500
628.103	377.508
628.231	382.636
628.360	380.085
628.488	383.907
628.616	382.169
628.744	376.805
628.872	382.347
629.000	381.398
629.128	383.788
629.256	380.373
629.385	378.110
629.513	379.297
629.641	379.983
629.769	383.178
629.897	377.881
630.025	377.424
630.153	378.729
630.281	379.644
630.410	373.585
630.538	379.695
630.666	379.873
630.794	372.602
630.922	372.720
631.050	377.136
631.178	372.771
631.306	378.076
631.435	378.347
631.563	375.864
631.691	370.907
631.819	373.983
631.947	375.669
632.075	376.212
632.203	370.814
632.331	376.322
632.460	371.737
632.588	374.593
632.716	371.551
632.844	373.559
632.972	373.661
633.100	371.424
633.228	370.534
633.356	367.297
633.485	372.449
633.613	372.288
633.741	370.568
633.869	368.305
633.997	367.831
634.125	363.441
634.253	364.788
634.381	365.449
634.510	369.797
634.638	366.415
634.766	369.059
634.894	370.975
635.022	364.508
635.150	361.542
635.278	368.085
635.406	367.186
635.535	366.449
635.663	365.907
635.791	364.822
635.919	368.458
636.047	362.737
636.175	363.254
636.303	366.780
636.431	366.653
636.560	363.729
636.688	360.525
636.816	361.924
636.944	361.508
637.072	362.559
637.200	356.322
637.328	357.915
637.456	361.229
637.585	359.619
637.713	358.203
637.841	358.093
637.969	357.356
638.097	357.780
638.225	358.178
638.353	359.034
638.481	360.822
638.610	359.407
638.738	356.814
638.866	355.500
638.994	359.212
639.122	356.280
639.250	360.076
639.378	358.263
639.506	352.237
639.635	352.525
639.763	354.415
639.891	357.475
640.019	359.636
640.147	354.017
640.275	357.924
640.403	356.754
640.531	358.263
640.660	353.068
640.788	356.390
640.916	353.042
641.044	357.678
641.172	350.924
641.300	356.898
641.428	350.686
641.556	356.568
641.685	353.602
641.813	350.881
641.941	354.186
642.069	352.898
642.197	353.025
642.325	352.229
642.453	354.890
642.581	355.271
642.710	352.780
642.838	355.983
642.966	352.093
643.094	353.441
643.222	351.042
643.350	347.898
643.478	348.966
643.606	352.492
643.735	348.983
643.863	351.500
643.991	350.559
644.119	347.093
644.247	348.415
644.375	350.042
644.503	349.585
644.631	348.669
644.760	350.068
644.888	349.831
645.016	347.695
645.144	350.695
645.272	350.042
645.400	348.356
645.528	348.500
645.656	343.051
645.785	349.407
645.913	348.339
646.041	347.992
646.169	344.169
646.297	342.144
646.425	342.195
646.553	341.042
646.681	342.415
646.810	343.763
646.938	344.466
647.066	339.254
647.194	341.203
647.322	340.720
647.450	337.822
647.578	342.517
647.706	344.881
647.835	343.008
647.963	339.695
648.091	338.542
648.219	336.305
648.347	335.797
648.475	329.797
648.603	335.847
648.731	334.797
648.860	330.534
648.988	331.746
649.116	336.008
649.244	329.008
649.372	331.322
649.500	332.822
649.628	331.983
649.756	334.441
649.885	331.288
650.013	324.364
650.141	329.754
650.269	330.178
650.397	327.364
650.525	324.661
650.653	328.534
650.781	320.449
650.910	323.932
651.038	323.169
651.166	323.432
651.294	324.576
651.422	323.314
651.550	317.958
651.678	315.347
651.806	314.246
651.935	319.042
652.063	319.424
652.191	316.686
652.319	316.822
652.447	322.627
652.575	315.203
652.703	315.898
652.831	313.415
652.960	312.059
653.088	311.169
653.216	309.737
653.344	315.110
653.472	313.347
653.600	311.195
653.728	308.746
653.856	308.822
653.985	311.237
654.113	307.475
654.241	312.424
654.369	307.847
654.497	307.161
654.625	308.042
654.753	307.771
654.881	306.822
655.010	307.186
655.138	304.771
655.266	306.695
655.394	301.068
655.522	302.492
655.650	300.424
655.778	303.636
655.906	304.551
656.035	302.831
656.163	299.280
656.291	301.000
656.419	299.695
656.547	300.627
656.675	296.576
656.803	299.983
656.931	299.085
657.060	301.915
657.188	295.144
657.316	297.246
657.444	297.042
657.572	298.636
657.700	294.814
657.828	298.754
657.956	295.424
658.085	295.576
658.213	294.517
658.341	291.737
658.469	291.136
658.597	293.297
658.725	294.703
658.853	289.186
658.981	288.627
659.110	292.746
659.238	288.975
659.366	290.085
659.494	287.331
659.622	287.110
659.750	291.144
659.878	290.542
660.006	287.373
660.135	287.966
660.263	284.347
660.391	283.814
660.519	287.780
660.647	283.153
660.775	285.492
660.903	285.754
661.031	285.051
661.160	281.034
661.288	282.525
661.416	286.364
661.544	284.466
661.672	281.432
661.800	285.356
661.928	283.415
662.056	279.483
662.185	280.186
662.313	281.153
662.441	278.407
662.569	277.780
662.697	280.805
662.825	281.271
662.953	279.424
663.081	279.178
663.210	280.356
663.338	278.161
663.466	278.415
663.594	278.025
663.722	274.475
663.850	274.754
663.978	275.475
664.106	277.797
664.235	275.949
664.363	276.356
664.491	274.712
664.619	273.610
664.747	274.890
664.875	274.864
665.003	275.441
665.131	274.483
665.260	274.347
665.388	272.983
665.516	271.390
665.644	273.644
665.772	271.746
665.900	271.746
666.028	272.017
666.156	272.822
666.285	270.127
666.413	271.932
666.541	273.432
666.669	266.890
666.797	267.000
666.925	268.695
667.053	269.958
667.181	267.729
667.310	267.203
667.438	268.661
667.566	266.915
667.694	266.856
667.822	267.593
667.950	265.051
668.078	264.559
668.206	266.864
668.335	265.280
668.463	266.695
668.591	267.051
668.719	264.059
668.847	261.271
668.975	262.788
669.103	262.500
669.231	261.347
669.360	260.229
669.488	260.415
669.616	262.034
669.744	261.754
669.872	259.805
670.000	262.297
670.128	262.237
670.256	258.364
670.385	257.737
670.513	263.949
670.641	256.737
670.769	258.144
670.897	256.864
671.025	258.000
671.153	259.017
671.281	258.475
671.410	252.449
671.538	252.720
671.666	255.373
671.794	255.161
671.922	254.653
672.050	251.381
672.178	253.119
672.306	251.720
672.435	252.314
672.563	255.347
672.691	253.017
672.819	250.678
672.947	250.475
673.075	249.602
673.203	246.746
673.331	250.644
673.460	250.305
673.588	250.000
673.716	249.136
673.844	246.475
673.972	248.966
674.100	250.017
674.228	246.805
674.356	245.271
674.485	244.475
674.613	244.008
674.741	242.771
674.869	241.398
674.997	241.390
675.125	240.551
675.253	243.051
675.381	239.517
675.510	241.042
675.638	243.102
675.766	240.619
675.894	238.186
676.022	239.119
676.150	237.102
676.278	239.025
676.406	239.678
676.535	235.627
676.663	233.237
676.791	232.958
676.919	236.898
677.047	232.068
677.175	230.907
677.303	234.059
677.431	233.559
677.560	227.153
677.688	234.322
677.816	233.424
677.944	234.000
678.072	229.186
678.200	231.508
678.328	227.780
678.456	230.000
678.585	227.229
678.713	227.017
678.841	227.686
678.969	224.169
679.097	230.576
679.225	225.381
679.353	227.661
679.481	225.475
679.610	226.915
679.738	223.051
679.866	224.568
679.994	226.373
680.122	225.415
680.250	223.839
680.378	222.720
680.506	222.093
680.635	220.322
680.763	222.432
680.891	221.051
681.019	223.178
681.147	220.186
681.275	216.992
681.403	222.983
681.531	217.737
681.660	220.203
681.788	218.432
681.916	214.432
682.044	219.678
682.172	217.720
682.300	217.780
682.428	221.551
682.556	216.119
682.685	217.356
682.813	217.661
682.941	216.339
683.069	218.525
683.197	216.059
683.325	215.797
683.453	213.941
683.581	215.110
683.710	214.992
683.838	214.424
683.966	214.941
684.094	215.424
684.222	212.144
684.350	213.932
684.478	214.788
684.606	213.924
684.735	213.966
684.863	211.593
684.991	209.220
685.119	210.805
685.247	211.153
685.375	209.508
685.503	213.347
685.631	211.415
685.760	210.754
685.888	212.559
686.016	211.432
686.144	212.186
686.272	208.703
686.400	208.653
686.528	204.169
686.656	210.110
686.785	207.890
686.913	211.500
687.041	206.364
687.169	208.025
687.297	206.441
687.425	205.475
687.553	206.966
687.681	207.898
687.810	208.703
687.938	203.525
688.066	206.695
688.194	205.661
688.322	207.288
688.450	204.475
688.578	207.085
688.706	204.534
688.835	204.653
688.963	202.636
689.091	203.390
689.219	203.195
689.347	203.441
689.475	205.017
689.603	203.034
689.731	204.678
689.860	202.025
689.988	200.856
690.116	200.669
690.244	202.907
690.372	200.110
690.500	199.856
690.628	199.297
690.756	199.339
690.885	198.669
691.013	200.407
691.141	198.390
691.269	200.703
691.397	203.627
691.525	200.983
691.653	200.381
691.781	199.703
691.910	197.492
692.038	200.305
692.166	199.237
692.294	198.449
692.422	199.458
692.550	195.881
692.678	199.288
692.806	198.669
692.935	197.771
693.063	196.339
693.191	195.619
693.319	194.585
693.447	194.559
693.575	194.271
693.703	194.161
693.831	193.492
693.960	192.576
694.088	194.432
694.216	196.585
694.344	192.949
694.472	196.602
694.600	191.822
694.728	192.415
694.856	193.161
694.985	193.153
695.113	190.669
695.241	190.288
695.369	189.983
695.497	191.729
695.625	191.924
695.753	193.678
695.881	189.068
696.010	188.932
696.138	190.602
696.266	189.381
696.394	188.424
696.522	189.068
696.650	189.110
696.778	183.466
696.906	188.407
697.035	187.627
697.163	184.864
697.291	186.754
697.419	188.051
697.547	186.254
697.675	184.754
697.803	185.542
697.931	183.331
698.060	186.737
698.188	187.119
698.316	186.839
698.444	183.169
698.572	183.627
698.700	184.992
698.828	182.534
698.956	180.237
699.085	180.619
699.213	180.712
699.341	180.475
699.469	180.551
699.597	184.695
699.725	183.644
699.853	177.983
699.981	180.068
700.110	181.576
700.238	179.492
700.366	177.881
700.494	177.831
700.622	180.686
700.750	180.161
700.878	179.034
701.006	177.907
701.135	178.441
701.263	176.525
701.391	177.220
701.519	175.703
701.647	177.856
701.775	178.059
701.903	175.381
702.031	178.347
702.160	177.839
702.288	176.153
702.416	173.636
702.544	175.924
702.672	174.763
702.800	173.186
702.928	174.788
703.056	175.924
703.185	174.763
703.313	172.712
703.441	174.441
703.569	174.008
703.697	173.847
703.825	172.314
703.953	173.602
704.081	171.932
704.210	171.381
704.338	171.466
704.466	169.076
704.594	169.746
704.722	170.271
704.850	169.636
704.978	172.492
705.106	168.975
705.235	170.924
705.363	168.246
705.491	170.992
705.619	171.975
705.747	167.907
705.875	169.593
706.003	167.186
706.131	168.678
706.260	169.203
706.388	168.161
706.516	165.441
706.644	167.754
706.772	166.627
706.900	164.644
707.028	164.949
707.156	166.653
707.285	165.610
707.413	167.653
707.541	162.373
707.669	166.873
707.797	164.449
707.925	164.458
708.053	162.619
708.181	164.593
708.310	162.966
708.438	163.161
708.566	161.110
708.694	162.424
708.822	161.356
708.950	164.746
709.078	161.449
709.206	161.695
709.335	159.525
709.463	160.873
709.591	159.017
709.719	159.373
709.847	159.975
709.975	160.102
710.103	159.271
710.231	159.042
710.360	158.992
710.488	158.110
710.616	157.364
710.744	156.695
710.872	159.017
711.000	157.119
711.128	155.831
711.256	157.432
711.385	158.119
711.513	155.203
711.641	159.712
711.769	157.127
711.897	155.186
712.025	155.712
712.153	155.992
712.281	155.729
712.410	155.602
712.538	156.627
712.666	153.161
712.794	155.585
712.922	156.322
713.050	152.458
713.178	154.042
713.306	152.424
713.435	153.466
713.563	152.085
713.691	153.932
713.819	155.398
713.947	150.305
714.075	152.678
714.203	153.585
714.331	153.653
714.460	152.186
714.588	154.017
714.716	150.975
714.844	152.102
714.972	148.864
715.100	150.305
715.228	152.610
715.356	151.924
715.485	154.364
715.613	149.941
715.741	148.797
715.869	148.932
715.997	152.093
716.125	147.907
716.253	148.000
716.381	150.381
716.510	152.085
716.638	148.212
716.766	149.017
716.894	147.983
717.022	149.008
717.150	148.763
717.278	148.051
717.406	148.339
717.535	148.847
717.663	149.008
717.791	147.788
717.919	147.788
718.047	146.288
718.175	149.585
718.303	148.381
718.431	146.907
718.560	145.017
718.688	147.263
718.816	147.229
718.944	145.398
719.072	145.364
719.200	147.051
719.328	144.754
719.456	146.958
719.585	144.839
719.713	144.966
719.841	145.102
719.969	144.339
720.097	145.932
720.225	143.831
720.353	143.237
720.481	145.517
720.610	146.398
720.738	142.458
720.866	145.068
720.994	142.229
721.122	142.898
721.250	142.856
721.378	145.237
721.506	143.237
721.635	144.475
721.763	142.983
721.891	142.678
722.019	141.949
722.147	141.381
722.275	141.780
722.403	142.212
722.531	142.449
722.660	141.000
722.788	142.254
722.916	143.500
723.044	141.373
723.172	141.839
723.300	140.805
723.428	138.712
723.556	138.500
723.685	140.627
723.813	141.508
723.941	136.805
724.069	142.483
724.197	138.551
724.325	137.958
724.453	138.754
724.581	137.441
724.710	139.754
724.838	140.949
724.966	139.110
725.094	138.254
725.222	136.602
725.350	135.305
725.478	137.203
725.606	137.042
725.735	138.466
725.863	136.864
725.991	137.314
726.119	134.288
726.247	135.398
726.375	134.932
726.503	139.712
726.631	136.178
726.760	134.398
726.888	133.339
727.016	134.797
727.144	137.568
727.272	136.263
727.400	133.754
727.528	134.229
727.656	135.534
727.785	136.364
727.913	134.373
728.041	134.314
728.169	134.839
728.297	132.500
728.425	133.381
728.553	133.627
728.681	134.669
728.810	131.466
728.938	134.110
729.066	132.924
729.194	133.805
729.322	134.636
729.450	133.085
729.578	133.153
729.706	132.178
729.835	130.339
729.963	135.373
730.091	134.390
730.219	131.153
730.347	130.593
730.475	131.949
730.603	133.220
730.731	131.627
730.860	129.873
730.988	132.492
731.116	130.839
731.244	131.347
731.372	130.331
731.500	129.585
731.628	130.890
731.756	131.136
731.885	129.831
732.013	127.178
732.141	129.466
732.269	129.322
732.397	129.153
732.525	128.407
732.653	127.483
732.781	129.898
732.910	128.212
733.038	128.220
733.166	128.254
733.294	129.254
733.422	128.831
733.550	129.347
733.678	127.415
733.806	129.610
733.935	129.110
734.063	127.153
734.191	128.864
734.319	129.331
734.447	127.729
734.575	127.322
734.703	127.746
734.831	126.568
734.960	126.559
735.088	127.246
735.216	128.720
735.344	126.025
735.472	126.864
735.600	125.805
735.728	126.949
735.856	126.025
735.985	125.127
736.113	125.517
736.241	125.161
736.369	127.661
736.497	125.788
736.625	127.398
736.753	127.059
736.881	126.203
737.010	123.924
737.138	127.119
737.266	125.720
737.394	125.941
737.522	125.246
737.650	126.602
737.778	127.144
737.906	124.619
738.035	124.610
738.163	124.212
738.291	124.847
738.419	123.008
738.547	125.042
738.675	126.449
738.803	125.339
738.931	124.500
739.060	126.492
739.188	125.381
739.316	123.576
739.444	124.280
739.572	125.203
739.700	124.890
739.828	124.356
739.956	122.356
740.085	124.000
740.213	123.102
740.341	122.924
740.469	124.805
740.597	124.042
740.725	125.017
740.853	123.364
740.981	122.542
741.110	123.890
741.238	123.136
741.366	123.220
741.494	122.873
741.622	121.958
741.750	123.814
741.878	124.034
742.006	122.966
742.135	123.085
742.263	122.220
742.391	120.924
742.519	124.407
742.647	121.864
742.775	124.051
742.903	122.051
743.031	122.364
743.160	120.890
743.288	121.314
743.416	121.568
743.544	121.788
743.672	121.754
743.800	122.220
743.928	121.898
744.056	120.958
744.185	121.373
744.313	121.432
744.441	122.229
744.569	121.653
744.697	119.653
744.825	121.771
744.953	121.517
745.081	121.737
745.210	122.881
745.338	120.322
745.466	121.686
745.594	120.805
745.722	120.669
745.850	119.958
745.978	120.975
746.106	119.873
746.235	121.847
746.363	120.288
746.491	120.034
746.619	121.110
746.747	120.415
746.875	120.102
747.003	120.051
747.131	120.076
747.260	121.517
747.388	120.712
747.516	120.559
747.644	119.432
747.772	121.254
747.900	119.788
748.028	119.915
748.156	118.525
748.285	120.780
748.413	120.381
748.541	118.932
748.669	119.136
748.797	119.127
748.925	119.441
749.053	117.975
749.181	118.356
749.310	119.373
749.438	119.458
749.566	118.373
749.694	118.983
749.822	118.229
749.950	119.720
750.078	119.068
750.206	119.314
750.335	118.754
750.463	119.212
750.591	118.034
750.719	118.983
750.847	116.407
750.975	116.551
751.103	117.331
751.231	117.331
751.360	117.271
751.488	116.610
751.616	114.288
751.744	116.220
751.872	116.983
752.000	115.627
752.128	116.915
752.256	116.449
752.385	117.661
752.513	115.873
752.641	116.864
752.769	115.966
752.897	117.703
753.025	115.051
753.153	117.839
753.281	116.483
753.410	116.585
753.538	115.525
753.666	116.364
753.794	116.331
753.922	116.178
754.050	115.102
754.178	115.924
754.306	116.314
754.435	114.958
754.563	117.347
754.691	115.602
754.819	115.551
754.947	114.695
755.075	116.508
755.203	116.305
755.331	115.356
755.460	114.576
755.588	115.500
755.716	115.356
755.844	114.703
755.972	114.475
756.100	114.288
756.228	114.458
756.356	114.678
756.485	115.720
756.613	115.178
756.741	114.195
756.869	115.178
756.997	116.373
757.125	114.415
757.253	115.076
757.381	113.788
757.510	114.610
757.638	114.483
757.766	114.254
757.894	113.356
758.022	114.958
758.150	113.958
758.278	114.737
758.406	114.720
758.535	114.602
758.663	114.000
758.791	112.932
758.919	112.924
759.047	113.907
759.175	114.534
759.303	113.695
759.431	114.042
759.560	112.992
759.688	115.729
759.816	114.924
759.944	113.737
760.072	113.110
760.200	113.076
760.328	113.644
760.456	113.263
760.585	114.398
760.713	113.466
760.841	113.288
760.969	114.814
761.097	113.085
761.225	114.381
761.353	114.958
761.481	113.703
761.610	113.593
761.738	114.508
761.866	113.847
761.994	113.144
762.122	112.246
762.250	113.042
762.378	112.746
762.506	113.271
762.635	113.449
762.763	113.339
762.891	113.941
763.019	113.364
763.147	114.373
763.275	113.483
763.403	113.220
763.531	113.466
763.660	114.017
763.788	113.831
763.916	113.763
764.044	114.127
764.172	113.610
764.300	113.831
764.428	112.992
764.556	111.136
764.685	112.119
764.813	111.559
764.941	113.347
765.069	113.585
765.197	112.873
765.325	111.042
765.453	112.102
765.581	112.627
765.710	111.763
765.838	111.449
765.966	112.246
766.094	112.246
766.222	112.203
766.350	111.737
766.478	111.153
766.606	111.898
766.735	111.042
766.863	110.924
766.991	111.924
767.119	112.949
767.247	111.212
767.375	111.797
767.503	112.627
767.631	113.085
767.760	111.153
767.888	112.119
768.016	111.542
768.144	111.907
768.272	111.203
768.400	112.305
768.528	112.093
768.656	111.110
768.785	111.322
768.913	111.314
769.041	111.110
769.169	110.381
769.297	111.076
769.425	110.263
769.553	111.127
769.681	110.585
769.810	113.008
769.938	110.788
770.066	111.619
770.194	111.373
770.322	110.856
770.450	111.280
770.578	111.390
770.706	111.686
770.835	110.966
770.963	111.305
771.091	111.025
771.219	110.678
771.347	110.949
771.475	110.958
771.603	110.814
771.731	110.373
771.860	110.788
771.988	111.195
772.116	111.508
772.244	109.661
772.372	110.966
772.500	111.373
772.628	111.390
772.756	110.220
772.885	110.568
773.013	111.237
773.141	110.322
773.269	109.881
773.397	110.754
773.525	110.051
773.653	110.975
773.781	110.576
773.910	110.144
774.038	110.297
774.166	110.763
774.294	110.932
774.422	109.737
774.550	110.339
774.678	109.898
774.806	109.669
774.935	109.771
775.063	108.992
775.191	110.127
775.319	108.992
775.447	110.525
775.575	109.551
775.703	110.042
775.831	109.314
775.960	109.212
776.088	109.559
776.216	110.153
776.344	109.602
776.472	109.653
776.600	109.390
776.728	109.551
776.856	109.551
776.985	110.364
777.113	109.305
777.241	109.364
777.369	109.508
777.497	107.729
777.625	109.068
777.753	108.703
777.881	109.102
778.010	109.271
778.138	108.737
778.266	108.449
778.394	109.949
778.522	110.068
778.650	109.076
778.778	107.822
778.906	109.153
779.035	108.534
779.163	108.653
779.291	109.314
779.419	109.881
779.547	109.669
779.675	109.839
779.803	108.525
779.931	108.678
780.060	109.653
780.188	108.669
780.316	109.449
780.444	109.593
780.572	108.042
780.700	108.822
780.828	109.186
780.956	108.636
781.085	109.373
781.213	108.331
781.341	108.331
781.469	108.814
781.597	109.246
781.725	109.059
781.853	108.915
781.981	108.085
782.110	108.856
782.238	109.025
782.366	108.441
782.494	107.695
782.622	110.415
782.750	109.788
782.878	109.102
783.006	109.288
783.135	108.788
783.263	107.992
783.391	109.203
783.519	108.636
783.647	108.246
783.775	107.559
783.903	108.695
784.031	108.407
784.160	108.203
784.288	109.051
784.416	107.466
784.544	108.907
784.672	107.661
784.800	108.559
784.928	108.178
785.056	107.644
785.185	108.568
785.313	108.212
785.441	107.322
785.569	108.949
785.697	109.619
785.825	107.407
785.953	107.720
786.081	107.661
786.210	107.966
786.338	108.364
786.466	107.576
786.594	107.653
786.722	107.992
786.850	108.102
786.978	107.390
787.106	107.763
787.235	108.610
787.363	108.339
787.491	108.034
787.619	108.051
787.747	107.822
787.875	107.746
788.003	107.220
788.131	106.381
788.260	107.458
788.388	107.763
788.516	106.864
788.644	108.203
788.772	106.305
788.900	108.119
789.028	106.746
789.156	108.331
789.285	107.534
789.413	106.559
789.541	107.576
789.669	106.864
789.797	107.280
789.925	107.424
790.053	108.263
790.181	107.542
790.310	107.263
790.438	106.347
790.566	107.797
790.694	107.492
790.822	106.881
790.950	108.475
791.078	107.449
791.206	106.381
791.335	106.686
791.463	106.712
791.591	106.517
791.719	107.212
791.847	106.678
791.975	106.508
792.103	106.203
792.231	107.958
792.360	106.966
792.488	106.500
792.616	107.220
792.744	106.085
792.872	107.686
793.000	107.076
793.128	106.441
793.256	107.254
793.385	106.424
793.513	107.169
793.641	106.864
793.769	105.449
793.897	106.373
794.025	107.025
794.153	106.822
794.281	106.407
794.410	106.805
794.538	107.169
794.666	106.746
794.794	106.492
794.922	106.992
795.050	105.831
795.178	106.712
795.306	104.729
795.435	105.695
795.563	105.856
795.691	105.966
795.819	105.288
795.947	106.042
796.075	106.932
796.203	107.161
796.331	106.542
796.460	106.136
796.588	106.297
796.716	106.847
796.844	106.983
796.972	107.508
797.100	105.576
797.228	107.110
797.356	108.212
797.485	107.161
797.613	106.847
797.741	105.280
797.869	106.610
797.997	106.441
798.125	106.890
798.253	106.085
798.381	106.127
798.510	106.000
798.638	105.500
798.766	105.695
798.894	105.339
799.022	105.678
799.150	105.534
799.278	105.932
799.406	106.415
799.535	105.814
799.663	106.593
799.791	105.102
799.919	105.898
800.047	105.975
800.175	106.153
800.303	106.237
800.431	106.186
800.560	105.381
800.688	105.534
800.816	105.822
800.944	105.390
801.072	106.873
801.200	106.195
801.328	105.678
801.456	106.517
801.585	106.186
801.713	105.864
801.841	106.678
801.969	105.924
802.097	106.136
802.225	106.407
802.353	106.237
802.481	106.254
802.610	105.856
802.738	105.661
802.866	106.195
802.994	105.161
803.122	105.347
803.250	106.331
803.378	105.475
803.506	105.339
803.635	105.712
803.763	105.729
803.891	106.314
804.019	105.161
804.147	105.924
804.275	105.271
804.403	105.847
804.531	105.703
804.660	105.466
804.788	105.881
804.916	105.220
805.044	105.051
805.172	105.712
805.300	104.932
805.428	105.483
805.556	105.025
805.685	105.678
805.813	105.966
805.941	105.263
806.069	106.458
806.197	106.119
806.325	104.754
806.453	106.169
806.581	105.237
806.710	105.593
806.838	104.246
806.966	105.653
807.094	104.847
807.222	105.915
807.350	106.076
807.478	105.271
807.606	105.076
807.735	105.432
807.863	105.966
807.991	105.169
808.119	105.271
808.247	105.373
808.375	105.576
808.503	104.958
808.631	105.356
808.760	105.458
808.888	104.542
809.016	105.432
809.144	106.042
809.272	106.068
809.400	105.890
809.528	105.559
809.656	105.534
809.785	104.788
809.913	105.229
810.041	105.636
810.169	104.975
810.297	105.492
810.425	104.992
810.553	105.517
810.681	105.644
810.810	105.517
810.938	105.983
811.066	104.636
811.194	104.737
811.322	105.492
811.450	105.254
811.578	105.602
811.706	105.593
811.835	105.229
811.963	104.992
812.091	105.814
812.219	105.441
812.347	104.051
812.475	105.720
812.603	106.025
812.731	104.788
812.860	105.110
812.988	105.466
813.116	105.025
813.244	105.246
813.372	105.703
813.500	105.619
813.628	106.458
813.756	103.737
813.885	106.042
814.013	105.195
814.141	105.771
814.269	104.542
814.397	106.017
814.525	105.695
814.653	105.576
814.781	106.559
814.910	105.237
815.038	106.356
815.166	106.331
815.294	105.288
815.422	106.678
815.550	104.364
815.678	105.229
815.806	104.356
815.935	104.678
816.063	105.093
816.191	105.297
816.319	105.619
816.447	106.059
816.575	105.220
816.703	104.814
816.831	105.983
816.960	105.839
817.088	104.797
817.216	104.864
817.344	105.008
817.472	105.805
817.600	104.932
817.728	105.042
817.856	105.373
817.985	104.441
818.113	105.551
818.241	105.288
818.369	104.780
818.497	105.322
818.625	104.720
818.753	104.415
818.881	105.280
819.010	104.280
819.138	104.763
819.266	104.593
819.394	104.449
819.522	103.797
819.650	104.924
819.778	104.415
819.906	105.203
820.035	105.203
820.163	104.890
820.291	104.076
820.419	104.314
820.547	105.144
820.675	103.390
820.803	105.288
820.931	105.695
821.060	103.424
821.188	104.712
821.316	104.492
821.444	104.364
821.572	104.525
821.700	104.508
821.828	105.373
821.956	105.136
822.085	104.424
822.213	105.297
822.341	104.364
822.469	103.941
822.597	104.432
822.725	103.975
822.853	104.703
822.981	104.042
823.110	105.576
823.238	104.051
823.366	104.898
823.494	104.076
823.622	104.008
823.750	104.712
823.878	103.017
824.006	105.585
824.135	105.203
824.263	105.127
824.391	103.992
824.519	105.322
824.647	104.712
824.775	104.898
824.903	105.025
825.031	106.042
825.160	106.000
825.288	104.517
825.416	104.483
825.544	104.407
825.672	105.525
825.800	104.017
825.928	104.627
826.056	104.449
826.185	104.314
826.313	105.551
826.441	103.771
826.569	103.856
826.697	104.559
826.825	104.347
826.953	104.915
827.081	103.466
827.210	104.271
827.338	103.856
827.466	103.449
827.594	104.559
827.722	104.797
827.850	104.068
827.978	103.542
828.106	104.729
828.235	105.314
828.363	104.678
828.491	104.653
828.619	104.280
828.747	104.831
828.875	104.076
829.003	104.864
829.131	105.008
829.260	105.729
829.388	104.186
829.516	104.373
829.644	104.195
829.772	105.220
829.900	104.229
830.028	105.025
830.156	104.051
830.285	104.678
830.413	104.763
830.541	104.805
830.669	104.237
830.797	103.958
830.925	103.780
831.053	103.525
831.181	104.856
831.310	104.831
831.438	104.517
831.566	104.466
831.694	103.788
831.822	104.203
831.950	104.508
832.078	104.729
832.206	104.424
832.335	103.686
832.463	104.788
832.591	104.483
832.719	104.237
832.847	104.305
832.975	103.314
833.103	104.881
833.231	104.263
833.360	104.500
833.488	104.381
833.616	103.356
833.744	103.017
833.872	105.102
834.000	105.525
834.128	104.432
834.256	104.136
834.385	104.492
834.513	105.119
834.641	103.364
834.769	103.678
834.897	105.025
835.025	103.797
835.153	103.034
835.281	104.161
835.410	104.203
835.538	104.610
835.666	103.864
835.794	104.034
835.922	104.593
836.050	104.551
836.178	103.805
836.306	104.093
836.435	104.347
836.563	103.754
836.691	104.398
836.819	104.890
836.947	103.890
837.075	103.585
837.203	103.322
837.331	103.568
837.460	104.576
837.588	103.127
837.716	104.246
837.844	103.542
837.972	103.695
838.100	104.093
838.228	103.915
838.356	103.568
838.485	101.890
838.613	104.051
838.741	104.619
838.869	103.508
838.997	104.466
839.125	103.653
839.253	103.212
839.381	103.712
839.510	102.924
839.638	103.678
839.766	103.483
839.894	103.915
840.022	104.441
840.150	104.381
840.278	104.280
840.406	104.356
840.535	104.847
840.663	103.305
840.791	102.703
840.919	103.983
841.047	103.136
841.175	103.466
841.303	103.500
841.431	103.941
841.560	104.085
841.688	103.508
841.816	103.449
841.944	103.051
842.072	103.610
842.200	103.432
842.328	104.517
842.456	103.203
842.585	104.025
842.713	103.619
842.841	103.153
842.969	103.415
843.097	104.059
843.225	103.127
843.353	103.746
843.481	102.585
843.610	103.229
843.738	103.008
843.866	103.653
