Lampe_Signal_unpol_at_679.99nm_cut_at_1286.00Y_01.dat
24.01.2024
11:22:10
cut middle at Y: 1286.00
top cursor: 1345 down cursor: 1227 mean of: 118 lines , 2560 datapoints
wavelength(nm)	intensity[arb. units]
515.994	928.390
516.122	869.373
516.250	852.398
516.378	848.636
516.506	854.161
516.635	859.593
516.763	864.678
516.891	865.712
517.019	862.331
517.147	863.076
517.275	863.941
517.403	870.534
517.531	860.102
517.660	867.059
517.788	865.237
517.916	868.076
518.044	858.746
518.172	869.525
518.300	871.415
518.428	861.763
518.556	880.229
518.685	875.458
518.813	870.508
518.941	876.390
519.069	875.983
519.197	873.475
519.325	878.924
519.453	870.051
519.581	888.271
519.710	884.229
519.838	886.288
519.966	893.593
520.094	891.305
520.222	891.831
520.350	900.602
520.478	902.525
520.606	896.297
520.735	900.797
520.863	908.381
520.991	918.992
521.119	916.653
521.247	916.407
521.375	923.220
521.503	920.466
521.631	922.314
521.760	927.441
521.888	935.347
522.016	931.314
522.144	930.907
522.272	931.797
522.400	938.356
522.528	945.814
522.656	941.076
522.785	955.254
522.913	949.110
523.041	943.907
523.169	942.288
523.297	950.093
523.425	954.593
523.553	946.746
523.681	953.042
523.810	959.254
523.938	956.525
524.066	951.102
524.194	959.042
524.322	964.246
524.450	956.407
524.578	952.475
524.706	962.610
524.835	948.102
524.963	961.220
525.091	952.568
525.219	961.136
525.347	948.703
525.475	956.780
525.603	958.831
525.731	957.636
525.860	957.381
525.988	945.805
526.116	951.220
526.244	960.339
526.372	953.610
526.500	960.805
526.628	963.754
526.756	953.288
526.885	959.398
527.013	962.093
527.141	962.915
527.269	960.915
527.397	960.703
527.525	969.924
527.653	962.627
527.781	954.661
527.910	974.415
528.038	971.610
528.166	969.797
528.294	975.576
528.422	969.483
528.550	978.322
528.678	971.839
528.806	984.856
528.935	990.271
529.063	985.297
529.191	980.924
529.319	990.703
529.447	994.220
529.575	990.373
529.703	986.178
529.831	1002.839
529.960	993.288
530.088	990.881
530.216	1004.686
530.344	995.407
530.472	991.585
530.600	997.703
530.728	1003.432
530.856	1001.754
530.985	1008.525
531.113	994.254
531.241	1013.653
531.369	1012.025
531.497	1003.864
531.625	1007.263
531.753	1002.153
531.881	1013.093
532.010	1007.110
532.138	998.297
532.266	1006.763
532.394	1009.178
532.522	1005.237
532.650	1004.661
532.778	1009.788
532.906	1002.627
533.035	1010.483
533.163	997.678
533.291	995.364
533.419	990.712
533.547	1003.636
533.675	994.424
533.803	997.195
533.931	1006.271
534.060	996.644
534.188	1004.458
534.316	1004.873
534.444	1001.085
534.572	999.941
534.700	1006.339
534.828	998.051
534.956	1013.415
535.085	1009.669
535.213	1012.322
535.341	1010.008
535.469	1005.263
535.597	1013.619
535.725	1015.669
535.853	1023.000
535.981	1019.178
536.110	1026.975
536.238	1033.788
536.366	1035.093
536.494	1024.161
536.622	1034.381
536.750	1029.619
536.878	1040.432
537.006	1045.110
537.135	1047.136
537.263	1048.322
537.391	1044.441
537.519	1043.102
537.647	1057.534
537.775	1052.788
537.903	1057.669
538.031	1057.864
538.160	1052.475
538.288	1059.500
538.416	1058.364
538.544	1048.966
538.672	1054.212
538.800	1066.864
538.928	1070.424
539.056	1068.881
539.185	1073.907
539.313	1061.288
539.441	1064.042
539.569	1066.195
539.697	1076.593
539.825	1081.110
539.953	1076.085
540.081	1052.390
540.210	1076.034
540.338	1069.314
540.466	1085.280
540.594	1069.593
540.722	1062.831
540.850	1071.814
540.978	1072.636
541.106	1075.975
541.235	1078.229
541.363	1073.780
541.491	1069.966
541.619	1068.229
541.747	1072.466
541.875	1071.161
542.003	1076.864
542.131	1080.347
542.260	1069.373
542.388	1074.169
542.516	1072.059
542.644	1082.093
542.772	1075.212
542.900	1074.847
543.028	1075.017
543.156	1075.992
543.285	1086.729
543.413	1075.703
543.541	1075.407
543.669	1076.110
543.797	1085.347
543.925	1078.822
544.053	1090.771
544.181	1085.246
544.310	1073.924
544.438	1080.534
544.566	1083.941
544.694	1090.517
544.822	1075.932
544.950	1082.915
545.078	1078.347
545.206	1075.983
545.335	1084.941
545.463	1080.661
545.591	1076.449
545.719	1075.458
545.847	1076.331
545.975	1084.881
546.103	1081.703
546.231	1085.924
546.360	1084.008
546.488	1088.229
546.616	1088.873
546.744	1084.059
546.872	1077.644
547.000	1080.271
547.128	1090.907
547.256	1088.780
547.385	1077.737
547.513	1079.898
547.641	1086.085
547.769	1079.093
547.897	1092.890
548.025	1091.966
548.153	1095.144
548.281	1083.881
548.410	1083.814
548.538	1097.839
548.666	1086.788
548.794	1092.466
548.922	1087.466
549.050	1093.110
549.178	1089.958
549.306	1092.551
549.435	1098.093
549.563	1082.339
549.691	1087.746
549.819	1100.169
549.947	1095.797
550.075	1092.686
550.203	1086.636
550.331	1080.653
550.460	1091.458
550.588	1091.203
550.716	1096.703
550.844	1081.356
550.972	1083.017
551.100	1082.424
551.228	1085.907
551.356	1071.610
551.485	1083.229
551.613	1079.695
551.741	1072.585
551.869	1071.076
551.997	1064.500
552.125	1076.686
552.253	1073.254
552.381	1057.288
552.510	1063.373
552.638	1065.144
552.766	1066.381
552.894	1053.415
553.022	1057.551
553.150	1046.847
553.278	1064.788
553.406	1051.271
553.535	1048.864
553.663	1042.992
553.791	1045.525
553.919	1045.297
554.047	1050.864
554.175	1044.678
554.303	1035.110
554.431	1041.644
554.560	1045.212
554.688	1043.924
554.816	1042.619
554.944	1042.814
555.072	1043.669
555.200	1044.915
555.328	1046.881
555.456	1045.924
555.585	1046.585
555.713	1034.254
555.841	1046.364
555.969	1047.373
556.097	1047.051
556.225	1047.415
556.353	1062.508
556.481	1031.932
556.610	1050.992
556.738	1052.441
556.866	1059.331
556.994	1048.822
557.122	1045.890
557.250	1053.780
557.378	1052.051
557.506	1049.525
557.635	1051.983
557.763	1047.178
557.891	1054.661
558.019	1049.729
558.147	1052.466
558.275	1058.983
558.403	1059.831
558.531	1049.169
558.660	1046.254
558.788	1056.712
558.916	1056.949
559.044	1049.661
559.172	1045.585
559.300	1062.186
559.428	1056.771
559.556	1058.576
559.685	1052.661
559.813	1041.102
559.941	1054.466
560.069	1061.720
560.197	1047.466
560.325	1054.924
560.453	1048.983
560.581	1053.076
560.710	1043.763
560.838	1049.983
560.966	1051.712
561.094	1047.737
561.222	1037.703
561.350	1040.415
561.478	1022.517
561.606	1045.212
561.735	1038.059
561.863	1032.102
561.991	1035.610
562.119	1029.195
562.247	1039.381
562.375	1038.856
562.503	1034.805
562.631	1029.017
562.760	1026.212
562.888	1030.703
563.016	1032.508
563.144	1024.644
563.272	1017.432
563.400	1014.678
563.528	1017.585
563.656	1018.729
563.785	1018.492
563.913	1017.042
564.041	1011.915
564.169	1014.831
564.297	1010.966
564.425	1010.169
564.553	1018.161
564.681	1020.686
564.810	1009.042
564.938	1011.754
565.066	1014.797
565.194	1024.678
565.322	1013.712
565.450	1010.585
565.578	1019.975
565.706	1016.508
565.835	1022.517
565.963	1016.059
566.091	1017.822
566.219	1025.475
566.347	1013.653
566.475	1012.525
566.603	1017.534
566.731	1024.500
566.860	1021.551
566.988	1019.508
567.116	1033.763
567.244	1027.873
567.372	1031.347
567.500	1033.525
567.628	1027.788
567.756	1023.686
567.885	1039.610
568.013	1037.703
568.141	1033.186
568.269	1031.644
568.397	1031.941
568.525	1031.475
568.653	1045.585
568.781	1037.356
568.910	1046.203
569.038	1037.347
569.166	1034.924
569.294	1040.975
569.422	1054.466
569.550	1037.195
569.678	1045.220
569.806	1042.907
569.935	1044.271
570.063	1050.466
570.191	1054.263
570.319	1046.458
570.447	1049.246
570.575	1049.771
570.703	1052.703
570.831	1059.983
570.960	1050.322
571.088	1063.297
571.216	1050.186
571.344	1049.237
571.472	1051.695
571.600	1060.136
571.728	1052.085
571.856	1058.898
571.985	1055.178
572.113	1053.144
572.241	1057.008
572.369	1066.754
572.497	1058.136
572.625	1062.924
572.753	1057.161
572.881	1056.169
573.010	1067.966
573.138	1070.695
573.266	1069.424
573.394	1060.924
573.522	1060.831
573.650	1061.356
573.778	1052.695
573.906	1061.390
574.035	1056.669
574.163	1056.347
574.291	1055.322
574.419	1054.593
574.547	1064.958
574.675	1069.195
574.803	1058.390
574.931	1056.424
575.060	1069.771
575.188	1060.144
575.316	1052.839
575.444	1054.127
575.572	1059.008
575.700	1052.407
575.828	1072.415
575.956	1055.788
576.085	1051.466
576.213	1049.661
576.341	1051.449
576.469	1055.847
576.597	1046.127
576.725	1048.949
576.853	1041.297
576.981	1043.161
577.110	1041.661
577.238	1048.924
577.366	1039.347
577.494	1032.653
577.622	1039.415
577.750	1036.347
577.878	1033.839
578.006	1044.246
578.135	1025.593
578.263	1028.941
578.391	1048.059
578.519	1025.678
578.647	1032.856
578.775	1032.288
578.903	1020.958
579.031	1034.576
579.160	1023.771
579.288	1025.042
579.416	1029.771
579.544	1034.814
579.672	1031.229
579.800	1033.398
579.928	1025.958
580.056	1016.483
580.185	1023.602
580.313	1019.585
580.441	1024.220
580.569	1017.220
580.697	1018.169
580.825	1024.949
580.953	1030.076
581.081	1025.958
581.210	1030.958
581.338	1033.864
581.466	1032.763
581.594	1037.297
581.722	1020.898
581.850	1018.144
581.978	1028.966
582.106	1022.441
582.235	1033.593
582.363	1025.102
582.491	1038.305
582.619	1023.153
582.747	1030.381
582.875	1033.839
583.003	1037.542
583.131	1038.297
583.260	1040.339
583.388	1043.475
583.516	1052.034
583.644	1045.890
583.772	1053.619
583.900	1051.568
584.028	1060.610
584.156	1046.992
584.285	1055.720
584.413	1057.068
584.541	1069.280
584.669	1058.034
584.797	1055.297
584.925	1061.661
585.053	1064.593
585.181	1068.771
585.310	1068.059
585.438	1060.102
585.566	1065.102
585.694	1075.822
585.822	1081.415
585.950	1070.305
586.078	1075.737
586.206	1090.814
586.335	1080.229
586.463	1080.822
586.591	1090.000
586.719	1088.449
586.847	1085.136
586.975	1086.534
587.103	1086.983
587.231	1081.449
587.360	1084.517
587.488	1094.822
587.616	1084.576
587.744	1089.890
587.872	1083.263
588.000	1094.992
588.128	1098.771
588.256	1089.907
588.385	1091.322
588.513	1086.653
588.641	1091.305
588.769	1094.331
588.897	1075.381
589.025	1089.475
589.153	1083.373
589.281	1081.144
589.410	1096.288
589.538	1087.051
589.666	1084.763
589.794	1086.398
589.922	1095.907
590.050	1095.169
590.178	1078.975
590.306	1086.246
590.435	1082.610
590.563	1070.966
590.691	1087.542
590.819	1073.492
590.947	1092.025
591.075	1078.483
591.203	1083.373
591.331	1094.839
591.460	1086.737
591.588	1081.407
591.716	1082.153
591.844	1082.712
591.972	1085.992
592.100	1081.754
592.228	1079.178
592.356	1095.958
592.485	1080.932
592.613	1077.212
592.741	1088.161
592.869	1080.602
592.997	1079.110
593.125	1096.314
593.253	1098.941
593.381	1084.822
593.510	1092.636
593.638	1082.347
593.766	1086.771
593.894	1093.034
594.022	1093.602
594.150	1090.602
594.278	1096.619
594.406	1083.610
594.535	1096.280
594.663	1099.432
594.791	1097.229
594.919	1093.042
595.047	1099.432
595.175	1094.237
595.303	1086.992
595.431	1096.669
595.560	1107.907
595.688	1098.508
595.816	1096.068
595.944	1107.449
596.072	1114.297
596.200	1103.831
596.328	1102.305
596.456	1096.432
596.585	1107.203
596.713	1111.288
596.841	1103.119
596.969	1101.085
597.097	1103.881
597.225	1104.415
597.353	1120.983
597.481	1120.025
597.610	1116.610
597.738	1120.449
597.866	1095.059
597.994	1116.475
598.122	1122.636
598.250	1102.839
598.378	1104.924
598.506	1112.695
598.635	1104.669
598.763	1122.178
598.891	1111.237
599.019	1119.610
599.147	1107.983
599.275	1108.297
599.403	1106.686
599.531	1110.110
599.660	1118.102
599.788	1106.746
599.916	1113.619
600.044	1106.186
600.172	1120.636
600.300	1116.508
600.428	1112.432
600.556	1124.161
600.685	1115.305
600.813	1120.441
600.941	1124.907
601.069	1124.653
601.197	1131.534
601.325	1125.653
601.453	1130.102
601.581	1126.525
601.710	1135.136
601.838	1135.636
601.966	1137.364
602.094	1122.508
602.222	1123.695
602.350	1132.110
602.478	1132.966
602.606	1138.492
602.735	1132.992
602.863	1134.771
602.991	1142.915
603.119	1149.144
603.247	1137.288
603.375	1141.737
603.503	1142.500
603.631	1143.017
603.760	1145.076
603.888	1151.263
604.016	1145.280
604.144	1159.178
604.272	1154.110
604.400	1147.288
604.528	1142.873
604.656	1151.890
604.785	1154.873
604.913	1156.763
605.041	1159.398
605.169	1157.568
605.297	1151.322
605.425	1157.390
605.553	1163.466
605.681	1158.975
605.810	1164.805
605.938	1157.102
606.066	1160.119
606.194	1162.051
606.322	1155.754
606.450	1167.754
606.578	1175.602
606.706	1158.500
606.835	1168.924
606.963	1164.941
607.091	1167.314
607.219	1157.110
607.347	1164.051
607.475	1169.534
607.603	1162.822
607.731	1165.110
607.860	1165.280
607.988	1167.059
608.116	1155.839
608.244	1163.653
608.372	1161.008
608.500	1162.373
608.628	1162.415
608.756	1164.237
608.885	1158.627
609.013	1161.644
609.141	1156.161
609.269	1158.212
609.397	1161.975
609.525	1153.559
609.653	1148.229
609.781	1150.475
609.910	1152.254
610.038	1137.153
610.166	1153.246
610.294	1143.297
610.422	1154.941
610.550	1147.178
610.678	1148.780
610.806	1137.051
610.935	1139.949
611.063	1149.322
611.191	1136.263
611.319	1146.568
611.447	1133.644
611.575	1140.076
611.703	1126.059
611.831	1134.831
611.960	1134.636
612.088	1132.398
612.216	1132.110
612.344	1138.220
612.472	1133.975
612.600	1130.729
612.728	1132.373
612.856	1133.000
612.985	1129.500
613.113	1126.788
613.241	1136.534
613.369	1124.678
613.497	1135.915
613.625	1128.288
613.753	1123.966
613.881	1127.686
614.010	1129.144
614.138	1123.119
614.266	1119.254
614.394	1129.314
614.522	1118.008
614.650	1140.754
614.778	1114.873
614.906	1141.195
615.035	1134.246
615.163	1119.144
615.291	1117.890
615.419	1129.483
615.547	1124.932
615.675	1125.856
615.803	1124.390
615.931	1135.788
616.060	1135.602
616.188	1125.805
616.316	1109.797
616.444	1114.517
616.572	1115.763
616.700	1127.534
616.828	1124.983
616.956	1132.271
617.085	1141.237
617.213	1129.161
617.341	1127.847
617.469	1126.576
617.597	1133.958
617.725	1139.873
617.853	1119.449
617.981	1128.847
618.110	1147.119
618.238	1135.492
618.366	1152.746
618.494	1141.085
618.622	1137.576
618.750	1140.051
618.878	1137.271
619.006	1133.525
619.135	1141.864
619.263	1148.992
619.391	1136.415
619.519	1138.576
619.647	1150.992
619.775	1143.144
619.903	1146.017
620.031	1149.551
620.160	1144.619
620.288	1147.449
620.416	1155.314
620.544	1159.449
620.672	1155.780
620.800	1148.568
620.928	1157.669
621.056	1153.136
621.185	1149.364
621.313	1148.932
621.441	1165.432
621.569	1164.271
621.697	1162.975
621.825	1167.449
621.953	1162.059
622.081	1165.220
622.210	1149.017
622.338	1159.839
622.466	1155.297
622.594	1166.898
622.722	1167.025
622.850	1164.034
622.978	1167.356
623.106	1163.127
623.235	1162.483
623.363	1158.568
623.491	1154.890
623.619	1155.746
623.747	1159.034
623.875	1159.839
624.003	1153.051
624.131	1153.703
624.260	1145.034
624.388	1159.076
624.516	1163.331
624.644	1151.517
624.772	1158.508
624.900	1160.110
625.028	1147.195
625.156	1169.153
625.285	1149.424
625.413	1155.297
625.541	1157.254
625.669	1146.034
625.797	1141.958
625.925	1142.737
626.053	1146.669
626.181	1156.076
626.310	1142.712
626.438	1138.339
626.566	1142.924
626.694	1138.424
626.822	1139.059
626.950	1149.932
627.078	1147.534
627.206	1134.186
627.335	1145.153
627.463	1135.458
627.591	1139.500
627.719	1136.263
627.847	1139.093
627.975	1139.364
628.103	1134.407
628.231	1134.068
628.360	1128.441
628.488	1138.331
628.616	1145.508
628.744	1123.288
628.872	1124.458
629.000	1133.458
629.128	1132.466
629.256	1145.237
629.385	1135.534
629.513	1118.678
629.641	1140.500
629.769	1117.517
629.897	1136.669
630.025	1130.890
630.153	1130.847
630.281	1130.169
630.410	1127.017
630.538	1133.458
630.666	1126.831
630.794	1116.364
630.922	1119.720
631.050	1121.263
631.178	1117.839
631.306	1118.203
631.435	1119.432
631.563	1119.881
631.691	1111.424
631.819	1114.856
631.947	1125.737
632.075	1115.737
632.203	1118.559
632.331	1118.398
632.460	1102.237
632.588	1117.788
632.716	1117.771
632.844	1115.653
632.972	1109.814
633.100	1119.195
633.228	1109.822
633.356	1110.153
633.485	1110.737
633.613	1113.076
633.741	1107.398
633.869	1106.525
633.997	1101.737
634.125	1108.051
634.253	1092.678
634.381	1095.288
634.510	1103.246
634.638	1088.331
634.766	1093.237
634.894	1094.280
635.022	1088.941
635.150	1087.280
635.278	1097.619
635.406	1094.475
635.535	1080.246
635.663	1088.788
635.791	1087.458
635.919	1093.788
636.047	1081.915
636.175	1074.068
636.303	1085.263
636.431	1087.636
636.560	1083.873
636.688	1082.466
636.816	1084.678
636.944	1073.347
637.072	1089.280
637.200	1070.110
637.328	1072.712
637.456	1079.424
637.585	1071.873
637.713	1072.949
637.841	1074.898
637.969	1071.754
638.097	1061.822
638.225	1069.754
638.353	1071.805
638.481	1076.449
638.610	1064.864
638.738	1071.203
638.866	1057.093
638.994	1059.551
639.122	1065.271
639.250	1065.305
639.378	1055.246
639.506	1054.254
639.635	1075.254
639.763	1060.559
639.891	1063.356
640.019	1057.729
640.147	1065.703
640.275	1054.500
640.403	1053.847
640.531	1056.127
640.660	1053.076
640.788	1066.720
640.916	1050.847
641.044	1066.661
641.172	1052.127
641.300	1056.212
641.428	1061.153
641.556	1065.729
641.685	1052.881
641.813	1047.805
641.941	1059.415
642.069	1055.432
642.197	1054.305
642.325	1048.975
642.453	1051.237
642.581	1059.720
642.710	1043.754
642.838	1052.169
642.966	1046.025
643.094	1047.737
643.222	1043.551
643.350	1050.695
643.478	1048.754
643.606	1047.263
643.735	1049.432
643.863	1033.390
643.991	1054.280
644.119	1042.814
644.247	1046.042
644.375	1040.881
644.503	1045.364
644.631	1048.246
644.760	1048.297
644.888	1045.576
645.016	1046.992
645.144	1048.322
645.272	1029.602
645.400	1038.364
645.528	1036.263
645.656	1023.441
645.785	1038.695
645.913	1033.890
646.041	1036.780
646.169	1022.127
646.297	1023.314
646.425	1021.246
646.553	1010.653
646.681	1019.636
646.810	1019.500
646.938	1026.703
647.066	1016.042
647.194	1009.390
647.322	1008.449
647.450	1012.093
647.578	1021.483
647.706	1008.407
647.835	1018.890
647.963	1008.203
648.091	1011.890
648.219	997.983
648.347	1000.847
648.475	1004.059
648.603	996.144
648.731	995.322
648.860	987.085
648.988	999.373
649.116	994.678
649.244	978.025
649.372	978.839
649.500	976.678
649.628	985.314
649.756	983.263
649.885	971.712
650.013	974.085
650.141	962.729
650.269	959.975
650.397	963.542
650.525	963.407
650.653	957.483
650.781	955.508
650.910	945.881
651.038	943.941
651.166	941.483
651.294	936.136
651.422	926.212
651.550	918.051
651.678	922.000
651.806	927.542
651.935	934.314
652.063	917.568
652.191	915.534
652.319	926.212
652.447	922.263
652.575	922.983
652.703	907.898
652.831	915.364
652.960	907.314
653.088	907.093
653.216	905.873
653.344	904.754
653.472	904.720
653.600	906.551
653.728	897.017
653.856	885.415
653.985	896.263
654.113	894.576
654.241	893.331
654.369	892.203
654.497	888.356
654.625	891.619
654.753	889.780
654.881	891.669
655.010	890.500
655.138	872.186
655.266	880.483
655.394	876.288
655.522	877.949
655.650	860.644
655.778	869.814
655.906	873.568
656.035	865.127
656.163	865.593
656.291	856.771
656.419	870.466
656.547	869.203
656.675	863.415
656.803	861.720
656.931	865.551
657.060	855.559
657.188	860.051
657.316	855.305
657.444	851.110
657.572	856.551
657.700	852.949
657.828	854.085
657.956	849.034
658.085	857.314
658.213	847.212
658.341	843.966
658.469	838.644
658.597	843.271
658.725	846.932
658.853	832.068
658.981	829.178
659.110	842.068
659.238	831.364
659.366	834.525
659.494	827.102
659.622	828.059
659.750	839.110
659.878	830.542
660.006	827.627
660.135	827.873
660.263	825.814
660.391	819.322
660.519	822.220
660.647	818.636
660.775	818.475
660.903	825.068
661.031	810.763
661.160	817.585
661.288	821.949
661.416	812.797
661.544	804.720
661.672	808.424
661.800	808.847
661.928	808.110
662.056	803.169
662.185	800.500
662.313	796.280
662.441	811.712
662.569	808.729
662.697	797.695
662.825	793.864
662.953	800.864
663.081	792.390
663.210	793.941
663.338	799.992
663.466	785.449
663.594	777.627
663.722	784.805
663.850	779.246
663.978	778.678
664.106	779.203
664.235	779.907
664.363	790.127
664.491	779.814
664.619	774.746
664.747	781.720
664.875	779.059
665.003	766.254
665.131	767.000
665.260	779.093
665.388	766.686
665.516	765.220
665.644	769.686
665.772	769.237
665.900	759.729
666.028	766.237
666.156	765.373
666.285	758.407
666.413	765.203
666.541	759.500
666.669	751.534
666.797	755.000
666.925	754.042
667.053	756.822
667.181	750.356
667.310	744.076
667.438	745.356
667.566	747.864
667.694	745.424
667.822	749.602
667.950	738.814
668.078	742.661
668.206	737.873
668.335	738.754
668.463	741.805
668.591	736.500
668.719	733.424
668.847	726.729
668.975	731.788
669.103	736.602
669.231	731.263
669.360	732.178
669.488	727.763
669.616	729.797
669.744	722.542
669.872	719.025
670.000	729.534
670.128	713.407
670.256	717.322
670.385	715.466
670.513	718.627
670.641	718.364
670.769	704.500
670.897	703.356
671.025	706.729
671.153	710.983
671.281	710.864
671.410	707.797
671.538	709.771
671.666	704.254
671.794	696.881
671.922	693.195
672.050	690.881
672.178	701.136
672.306	693.983
672.435	692.373
672.563	697.847
672.691	691.627
672.819	693.144
672.947	685.195
673.075	676.229
673.203	677.754
673.331	681.212
673.460	672.347
673.588	682.602
673.716	682.898
673.844	666.754
673.972	682.432
674.100	669.458
674.228	671.551
674.356	664.847
674.485	667.483
674.613	656.856
674.741	661.271
674.869	657.220
674.997	656.983
675.125	656.644
675.253	649.924
675.381	653.432
675.510	643.186
675.638	646.297
675.766	651.186
675.894	647.347
676.022	641.424
676.150	638.737
676.278	640.432
676.406	642.788
676.535	632.059
676.663	637.975
676.791	625.254
676.919	629.771
677.047	632.280
677.175	618.551
677.303	625.695
677.431	621.585
677.560	616.788
677.688	619.000
677.816	609.034
677.944	606.890
678.072	611.186
678.200	614.407
678.328	605.500
678.456	599.932
678.585	604.110
678.713	600.068
678.841	598.754
678.969	595.949
679.097	592.932
679.225	598.441
679.353	594.458
679.481	591.458
679.610	595.483
679.738	592.873
679.866	587.042
679.994	584.593
680.122	583.966
680.250	576.644
680.378	583.754
680.506	578.907
680.635	573.466
680.763	574.000
680.891	571.076
681.019	577.475
681.147	576.881
681.275	565.746
681.403	565.534
681.531	563.373
681.660	565.347
681.788	562.051
681.916	558.085
682.044	565.737
682.172	558.212
682.300	556.051
682.428	558.093
682.556	556.305
682.685	556.051
682.813	553.025
682.941	556.220
683.069	551.381
683.197	558.186
683.325	551.949
683.453	544.508
683.581	545.898
683.710	542.941
683.838	546.712
683.966	539.356
684.094	545.407
684.222	545.051
684.350	538.559
684.478	540.017
684.606	543.839
684.735	537.008
684.863	536.025
684.991	534.814
685.119	536.076
685.247	527.492
685.375	524.076
685.503	532.475
685.631	531.237
685.760	532.203
685.888	530.297
686.016	524.458
686.144	530.127
686.272	521.771
686.400	525.458
686.528	518.754
686.656	522.483
686.785	521.644
686.913	524.127
687.041	518.932
687.169	518.975
687.297	514.102
687.425	514.059
687.553	515.754
687.681	515.551
687.810	513.483
687.938	511.008
688.066	510.907
688.194	513.814
688.322	508.305
688.450	505.907
688.578	511.085
688.706	508.263
688.835	506.144
688.963	512.212
689.091	503.814
689.219	497.737
689.347	503.508
689.475	503.339
689.603	496.500
689.731	498.017
689.860	502.864
689.988	499.364
690.116	495.737
690.244	495.686
690.372	494.297
690.500	495.746
690.628	496.254
690.756	493.178
690.885	484.322
691.013	486.381
691.141	491.280
691.269	490.949
691.397	487.898
691.525	488.161
691.653	487.059
691.781	486.314
691.910	482.729
692.038	482.212
692.166	479.788
692.294	477.305
692.422	481.314
692.550	482.144
692.678	478.008
692.806	479.220
692.935	471.000
693.063	472.373
693.191	471.534
693.319	471.093
693.447	465.424
693.575	471.254
693.703	466.712
693.831	464.347
693.960	461.763
694.088	464.576
694.216	465.280
694.344	462.534
694.472	463.136
694.600	456.407
694.728	458.881
694.856	457.831
694.985	454.017
695.113	451.534
695.241	453.602
695.369	455.110
695.497	451.153
695.625	454.449
695.753	454.593
695.881	442.737
696.010	441.424
696.138	446.720
696.266	440.653
696.394	438.992
696.522	444.831
696.650	438.975
696.778	440.881
696.906	439.644
697.035	432.686
697.163	436.483
697.291	434.669
697.419	432.966
697.547	428.720
697.675	430.229
697.803	430.085
697.931	428.390
698.060	427.229
698.188	427.703
698.316	424.034
698.444	420.356
698.572	417.483
698.700	420.966
698.828	422.602
698.956	415.136
699.085	415.119
699.213	415.076
699.341	403.576
699.469	409.839
699.597	413.364
699.725	410.678
699.853	406.729
699.981	408.636
700.110	406.381
700.238	404.220
700.366	402.119
700.494	405.314
700.622	405.907
700.750	401.407
700.878	404.703
701.006	394.034
701.135	399.975
701.263	399.847
701.391	396.042
701.519	394.186
701.647	397.602
701.775	394.703
701.903	393.415
702.031	390.229
702.160	393.237
702.288	392.542
702.416	392.593
702.544	389.720
702.672	386.729
702.800	387.178
702.928	388.161
703.056	386.042
703.185	382.695
703.313	384.102
703.441	380.441
703.569	382.653
703.697	383.627
703.825	377.932
703.953	380.771
704.081	374.347
704.210	376.839
704.338	377.517
704.466	369.551
704.594	374.500
704.722	375.110
704.850	368.449
704.978	373.975
705.106	370.297
705.235	367.102
705.363	366.992
705.491	366.271
705.619	367.424
705.747	365.407
705.875	368.898
706.003	362.856
706.131	364.924
706.260	357.525
706.388	361.449
706.516	359.678
706.644	357.458
706.772	357.034
706.900	354.483
707.028	353.305
707.156	349.737
707.285	354.424
707.413	348.475
707.541	345.966
707.669	346.924
707.797	347.008
707.925	347.992
708.053	347.508
708.181	343.958
708.310	344.195
708.438	344.932
708.566	340.483
708.694	342.390
708.822	343.831
708.950	339.186
709.078	334.203
709.206	336.949
709.335	337.983
709.463	335.559
709.591	333.203
709.719	336.229
709.847	334.246
709.975	329.856
710.103	330.339
710.231	331.966
710.360	325.136
710.488	326.458
710.616	324.475
710.744	322.339
710.872	322.627
711.000	323.237
711.128	315.992
711.256	321.169
711.385	319.958
711.513	322.822
711.641	317.237
711.769	315.212
711.897	321.390
712.025	310.983
712.153	314.051
712.281	314.763
712.410	310.983
712.538	316.314
712.666	309.805
712.794	308.398
712.922	314.534
713.050	310.195
713.178	305.551
713.306	310.542
713.435	306.610
713.563	305.771
713.691	304.847
713.819	305.992
713.947	302.458
714.075	302.983
714.203	302.966
714.331	303.475
714.460	301.144
714.588	302.432
714.716	295.373
714.844	294.780
714.972	292.237
715.100	296.364
715.228	297.602
715.356	291.797
715.485	295.136
715.613	292.144
715.741	295.585
715.869	289.890
715.997	290.381
716.125	287.941
716.253	292.254
716.381	293.856
716.510	290.975
716.638	292.373
716.766	286.458
716.894	287.246
717.022	285.314
717.150	285.975
717.278	283.958
717.406	284.229
717.535	283.153
717.663	283.847
717.791	286.093
717.919	284.873
718.047	282.008
718.175	286.119
718.303	279.102
718.431	284.025
718.560	279.720
718.688	281.271
718.816	275.364
718.944	276.051
719.072	278.907
719.200	276.322
719.328	277.085
719.456	276.932
719.585	276.398
719.713	276.136
719.841	272.983
719.969	273.898
720.097	267.254
720.225	268.966
720.353	272.288
720.481	272.661
720.610	266.814
720.738	270.051
720.866	267.398
720.994	270.356
721.122	267.169
721.250	265.424
721.378	262.661
721.506	266.644
721.635	265.703
721.763	263.373
721.891	263.441
722.019	262.254
722.147	261.203
722.275	259.729
722.403	258.729
722.531	256.983
722.660	257.051
722.788	260.000
722.916	258.568
723.044	257.703
723.172	256.958
723.300	259.059
723.428	261.881
723.556	254.737
723.685	259.017
723.813	253.127
723.941	253.703
724.069	253.068
724.197	252.508
724.325	250.856
724.453	248.788
724.581	248.364
724.710	251.627
724.838	247.051
724.966	248.144
725.094	245.212
725.222	243.864
725.350	244.695
725.478	243.432
725.606	244.237
725.735	241.949
725.863	243.331
725.991	240.356
726.119	244.966
726.247	243.280
726.375	242.966
726.503	241.432
726.631	238.127
726.760	240.127
726.888	236.992
727.016	235.585
727.144	232.517
727.272	236.458
727.400	231.059
727.528	231.390
727.656	232.958
727.785	234.576
727.913	232.407
728.041	233.661
728.169	230.407
728.297	230.644
728.425	229.280
728.553	229.000
728.681	228.941
728.810	226.059
728.938	228.322
729.066	228.542
729.194	229.814
729.322	227.500
729.450	224.076
729.578	228.610
729.706	225.398
729.835	226.458
729.963	225.475
730.091	223.525
730.219	225.441
730.347	223.085
730.475	220.085
730.603	222.644
730.731	222.483
730.860	220.534
730.988	220.068
731.116	218.763
731.244	218.898
731.372	221.695
731.500	218.873
731.628	218.424
731.756	217.958
731.885	213.407
732.013	215.653
732.141	217.627
732.269	214.017
732.397	214.017
732.525	214.144
732.653	213.551
732.781	212.322
732.910	210.881
733.038	214.305
733.166	211.314
733.294	215.254
733.422	208.729
733.550	209.305
733.678	208.949
733.806	211.551
733.935	209.712
734.063	209.797
734.191	207.398
734.319	208.771
734.447	207.441
734.575	205.797
734.703	206.127
734.831	208.246
734.960	206.297
735.088	204.975
735.216	205.051
735.344	206.203
735.472	202.280
735.600	204.864
735.728	203.373
735.856	200.407
735.985	203.127
736.113	202.517
736.241	200.966
736.369	202.271
736.497	199.966
736.625	202.864
736.753	201.305
736.881	200.059
737.010	201.051
737.138	200.975
737.266	198.941
737.394	197.508
737.522	199.881
737.650	199.678
737.778	197.110
737.906	194.737
738.035	195.695
738.163	196.517
738.291	196.814
738.419	193.695
738.547	196.008
738.675	197.500
738.803	191.653
738.931	194.949
739.060	193.559
739.188	194.992
739.316	194.475
739.444	192.534
739.572	193.873
739.700	190.890
739.828	190.661
739.956	189.619
740.085	190.271
740.213	191.153
740.341	187.797
740.469	189.280
740.597	188.534
740.725	190.034
740.853	188.339
740.981	189.212
741.110	186.356
741.238	186.695
741.366	188.475
741.494	187.229
741.622	185.492
741.750	187.203
741.878	186.983
742.006	187.390
742.135	183.746
742.263	186.941
742.391	180.008
742.519	186.347
742.647	185.119
742.775	185.492
742.903	182.864
743.031	184.305
743.160	185.280
743.288	181.593
743.416	180.915
743.544	180.093
743.672	182.644
743.800	181.186
743.928	182.771
744.056	177.161
744.185	180.661
744.313	181.415
744.441	180.093
744.569	175.720
744.697	176.653
744.825	180.424
744.953	178.703
745.081	179.161
745.210	179.102
745.338	179.958
745.466	176.542
745.594	176.364
745.722	175.288
745.850	176.407
745.978	176.847
746.106	175.856
746.235	175.407
746.363	175.941
746.491	175.627
746.619	175.042
746.747	174.983
746.875	171.720
747.003	174.331
747.131	174.415
747.260	172.042
747.388	173.534
747.516	178.873
747.644	171.653
747.772	172.712
747.900	171.559
748.028	171.610
748.156	169.771
748.285	172.186
748.413	171.525
748.541	170.034
748.669	170.237
748.797	169.839
748.925	170.144
749.053	169.331
749.181	170.458
749.310	170.127
749.438	169.008
749.566	166.534
749.694	169.051
749.822	167.915
749.950	167.305
750.078	166.881
750.206	165.881
750.335	165.983
750.463	166.949
750.591	167.822
750.719	166.449
750.847	164.102
750.975	163.492
751.103	163.661
751.231	160.636
751.360	164.025
751.488	164.212
751.616	163.331
751.744	163.169
751.872	162.246
752.000	160.780
752.128	162.347
752.256	162.686
752.385	162.814
752.513	160.797
752.641	159.517
752.769	161.661
752.897	159.373
753.025	157.932
753.153	159.788
753.281	160.610
753.410	160.322
753.538	160.653
753.666	161.466
753.794	158.992
753.922	159.932
754.050	157.415
754.178	157.449
754.306	156.610
754.435	156.381
754.563	159.017
754.691	157.364
754.819	154.246
754.947	158.424
755.075	158.042
755.203	158.517
755.331	157.297
755.460	157.017
755.588	156.653
755.716	155.390
755.844	153.958
755.972	156.873
756.100	154.220
756.228	154.780
756.356	154.517
756.485	155.093
756.613	157.992
756.741	154.186
756.869	154.136
756.997	156.144
757.125	154.576
757.253	154.856
757.381	153.008
757.510	152.737
757.638	155.288
757.766	152.958
757.894	149.754
758.022	153.669
758.150	153.788
758.278	152.025
758.406	151.703
758.535	151.915
758.663	152.331
758.791	153.492
758.919	151.424
759.047	151.432
759.175	153.619
759.303	149.831
759.431	148.847
759.560	149.415
759.688	151.881
759.816	149.915
759.944	150.153
760.072	148.339
760.200	147.975
760.328	150.246
760.456	152.788
760.585	148.119
760.713	149.093
760.841	149.949
760.969	149.000
761.097	148.992
761.225	148.593
761.353	148.508
761.481	150.169
761.610	146.763
761.738	148.398
761.866	148.415
761.994	148.119
762.122	146.398
762.250	147.186
762.378	147.737
762.506	145.720
762.635	147.966
762.763	147.042
762.891	146.381
763.019	146.271
763.147	147.585
763.275	145.331
763.403	145.127
763.531	143.068
763.660	144.508
763.788	145.042
763.916	146.551
764.044	143.390
764.172	145.246
764.300	143.017
764.428	144.695
764.556	145.390
764.685	143.034
764.813	143.127
764.941	144.314
765.069	144.763
765.197	144.534
765.325	142.432
765.453	142.364
765.581	143.746
765.710	140.661
765.838	140.864
765.966	142.915
766.094	143.119
766.222	142.525
766.350	140.136
766.478	143.042
766.606	140.449
766.735	141.483
766.863	140.966
766.991	140.542
767.119	139.703
767.247	141.331
767.375	140.542
767.503	142.331
767.631	142.449
767.760	139.958
767.888	137.644
768.016	140.144
768.144	139.271
768.272	141.034
768.400	138.576
768.528	140.695
768.656	137.847
768.785	137.271
768.913	137.653
769.041	139.288
769.169	136.703
769.297	139.729
769.425	138.059
769.553	137.000
769.681	137.924
769.810	138.864
769.938	137.568
770.066	137.085
770.194	137.644
770.322	138.932
770.450	137.737
770.578	137.322
770.706	135.932
770.835	136.025
770.963	137.347
771.091	135.669
771.219	137.729
771.347	137.178
771.475	134.644
771.603	135.051
771.731	136.441
771.860	135.661
771.988	134.873
772.116	133.669
772.244	134.525
772.372	135.975
772.500	135.941
772.628	137.517
772.756	135.339
772.885	137.271
773.013	136.373
773.141	134.237
773.269	132.771
773.397	134.492
773.525	134.864
773.653	135.737
773.781	134.136
773.910	133.008
774.038	132.237
774.166	133.212
774.294	134.288
774.422	130.839
774.550	132.373
774.678	132.873
774.806	130.983
774.935	133.390
775.063	133.585
775.191	134.720
775.319	132.000
775.447	133.169
775.575	131.847
775.703	134.297
775.831	132.958
775.960	130.576
776.088	131.331
776.216	131.585
776.344	131.822
776.472	132.424
776.600	132.966
776.728	130.771
776.856	131.475
776.985	130.839
777.113	132.271
777.241	129.864
777.369	130.076
777.497	129.322
777.625	131.331
777.753	130.136
777.881	131.085
778.010	129.441
778.138	130.093
778.266	129.873
778.394	128.593
778.522	129.661
778.650	129.331
778.778	129.102
778.906	128.390
779.035	131.339
779.163	128.297
779.291	128.949
779.419	129.288
779.547	128.585
779.675	127.754
779.803	128.373
779.931	128.136
780.060	129.398
780.188	128.966
780.316	128.246
780.444	128.373
780.572	128.203
780.700	129.102
780.828	126.322
780.956	130.517
781.085	129.212
781.213	126.763
781.341	128.000
781.469	127.432
781.597	128.059
781.725	127.102
781.853	127.153
781.981	126.576
782.110	126.297
782.238	128.703
782.366	125.636
782.494	126.763
782.622	125.941
782.750	127.831
782.878	126.432
783.006	127.102
783.135	125.398
783.263	124.831
783.391	125.441
783.519	125.390
783.647	125.703
783.775	124.466
783.903	126.407
784.031	125.102
784.160	125.297
784.288	126.364
784.416	125.610
784.544	124.534
784.672	124.263
784.800	125.949
784.928	123.161
785.056	122.822
785.185	124.797
785.313	123.551
785.441	122.144
785.569	124.729
785.697	124.847
785.825	124.314
785.953	122.458
786.081	123.703
786.210	123.246
786.338	123.195
786.466	122.161
786.594	122.847
786.722	121.678
786.850	123.373
786.978	121.551
787.106	121.000
787.235	121.712
787.363	123.424
787.491	122.678
787.619	121.542
787.747	123.449
787.875	121.797
788.003	121.559
788.131	122.314
788.260	122.025
788.388	123.449
788.516	120.958
788.644	122.102
788.772	121.839
788.900	123.144
789.028	120.593
789.156	121.881
789.285	120.059
789.413	120.246
789.541	121.085
789.669	119.890
789.797	120.186
789.925	122.754
790.053	122.475
790.181	119.602
790.310	121.322
790.438	120.169
790.566	120.831
790.694	120.551
790.822	119.322
790.950	122.076
791.078	119.619
791.206	119.102
791.335	121.246
791.463	119.483
791.591	119.085
791.719	120.915
791.847	118.966
791.975	118.653
792.103	119.102
792.231	120.161
792.360	119.017
792.488	118.983
792.616	119.051
792.744	119.398
792.872	118.271
793.000	119.466
793.128	119.051
793.256	119.881
793.385	117.983
793.513	118.703
793.641	119.381
793.769	118.729
793.897	119.110
794.025	119.263
794.153	119.237
794.281	117.873
794.410	118.042
794.538	119.195
794.666	117.983
794.794	117.975
794.922	117.975
795.050	118.102
795.178	117.746
795.306	116.169
795.435	116.924
795.563	117.390
795.691	117.898
795.819	114.958
795.947	117.059
796.075	117.822
796.203	118.008
796.331	116.619
796.460	117.653
796.588	117.449
796.716	117.593
796.844	117.076
796.972	117.568
797.100	116.864
797.228	117.161
797.356	117.000
797.485	116.729
797.613	116.958
797.741	115.415
797.869	116.780
797.997	117.102
798.125	116.729
798.253	116.695
798.381	115.881
798.510	116.619
798.638	113.458
798.766	116.373
798.894	116.432
799.022	115.669
799.150	117.314
799.278	115.458
799.406	115.619
799.535	116.153
799.663	115.508
799.791	115.966
799.919	115.966
800.047	114.627
800.175	115.220
800.303	114.771
800.431	115.415
800.560	115.356
800.688	114.839
800.816	115.593
800.944	113.856
801.072	115.525
801.200	114.932
801.328	114.517
801.456	115.542
801.585	115.686
801.713	114.424
801.841	116.424
801.969	114.720
802.097	114.381
802.225	115.381
802.353	113.407
802.481	115.322
802.610	115.407
802.738	113.678
802.866	114.017
802.994	113.720
803.122	113.508
803.250	114.466
803.378	115.203
803.506	113.475
803.635	115.314
803.763	113.636
803.891	114.822
804.019	115.102
804.147	114.585
804.275	114.644
804.403	114.958
804.531	113.025
804.660	113.000
804.788	114.153
804.916	113.034
805.044	113.712
805.172	114.593
805.300	112.695
805.428	113.271
805.556	113.754
805.685	114.492
805.813	113.415
805.941	113.254
806.069	113.814
806.197	114.347
806.325	112.373
806.453	114.025
806.581	113.229
806.710	111.949
806.838	111.788
806.966	113.305
807.094	113.237
807.222	112.517
807.350	111.780
807.478	112.568
807.606	111.492
807.735	112.381
807.863	113.186
807.991	112.686
808.119	111.898
808.247	112.907
808.375	111.847
808.503	111.203
808.631	112.356
808.760	113.229
808.888	111.492
809.016	112.720
809.144	112.559
809.272	112.525
809.400	113.161
809.528	111.534
809.656	111.161
809.785	110.475
809.913	111.585
810.041	111.695
810.169	111.551
810.297	112.178
810.425	111.508
810.553	111.119
810.681	111.466
810.810	111.966
810.938	112.229
811.066	110.068
811.194	111.280
811.322	110.881
811.450	111.636
811.578	111.500
811.706	111.576
811.835	111.390
811.963	111.898
812.091	112.822
812.219	111.373
812.347	111.034
812.475	111.644
812.603	110.847
812.731	108.983
812.860	111.559
812.988	112.085
813.116	110.017
813.244	110.805
813.372	111.305
813.500	110.720
813.628	111.161
813.756	109.254
813.885	110.898
814.013	110.322
814.141	111.068
814.269	110.475
814.397	111.161
814.525	109.593
814.653	110.059
814.781	109.559
814.910	109.712
815.038	111.458
815.166	111.314
815.294	110.881
815.422	110.771
815.550	110.220
815.678	109.593
815.806	112.161
815.935	110.398
816.063	110.610
816.191	109.415
816.319	110.398
816.447	109.805
816.575	110.797
816.703	110.737
816.831	110.763
816.960	111.051
817.088	110.627
817.216	109.780
817.344	109.975
817.472	110.839
817.600	110.754
817.728	109.458
817.856	110.203
817.985	109.212
818.113	109.602
818.241	110.669
818.369	109.559
818.497	110.678
818.625	110.034
818.753	109.585
818.881	110.076
819.010	110.059
819.138	110.186
819.266	109.720
819.394	109.636
819.522	108.153
819.650	109.780
819.778	110.093
819.906	110.178
820.035	110.271
820.163	109.653
820.291	108.263
820.419	108.924
820.547	110.102
820.675	108.542
820.803	109.500
820.931	109.407
821.060	108.898
821.188	109.881
821.316	108.958
821.444	109.483
821.572	108.636
821.700	109.178
821.828	110.017
821.956	109.542
822.085	109.636
822.213	109.568
822.341	108.958
822.469	109.025
822.597	108.915
822.725	108.703
822.853	109.297
822.981	108.220
823.110	109.924
823.238	107.119
823.366	108.576
823.494	109.025
823.622	108.407
823.750	108.983
823.878	108.254
824.006	109.305
824.135	110.161
824.263	109.305
824.391	108.271
824.519	109.314
824.647	109.500
824.775	110.424
824.903	110.051
825.031	110.492
825.160	109.856
825.288	109.381
825.416	109.373
825.544	108.627
825.672	109.093
825.800	109.212
825.928	108.941
826.056	108.669
826.185	107.644
826.313	109.814
826.441	107.661
826.569	108.263
826.697	110.059
826.825	108.873
826.953	108.449
827.081	107.568
827.210	109.161
827.338	107.814
827.466	108.746
827.594	108.924
827.722	108.525
827.850	108.915
827.978	107.517
828.106	108.347
828.235	109.441
828.363	108.610
828.491	109.195
828.619	108.042
828.747	108.847
828.875	108.805
829.003	108.449
829.131	109.559
829.260	109.008
829.388	108.907
829.516	108.602
829.644	107.746
829.772	108.915
829.900	108.449
830.028	108.449
830.156	107.492
830.285	108.136
830.413	108.847
830.541	108.085
830.669	109.051
830.797	108.508
830.925	108.000
831.053	107.102
831.181	107.881
831.310	108.271
831.438	108.593
831.566	108.424
831.694	108.254
831.822	107.517
831.950	107.559
832.078	107.576
832.206	107.305
832.335	107.407
832.463	108.432
832.591	108.178
832.719	107.449
832.847	107.873
832.975	107.551
833.103	106.873
833.231	107.059
833.360	108.483
833.488	107.322
833.616	107.492
833.744	107.288
833.872	108.212
834.000	108.585
834.128	108.831
834.256	107.873
834.385	107.534
834.513	108.237
834.641	106.203
834.769	106.576
834.897	107.898
835.025	106.754
835.153	106.220
835.281	107.025
835.410	106.746
835.538	107.695
835.666	107.602
835.794	108.000
835.922	108.042
836.050	106.898
836.178	107.314
836.306	107.763
836.435	107.551
836.563	107.602
836.691	107.441
836.819	108.441
836.947	107.254
837.075	106.653
837.203	106.805
837.331	107.415
837.460	107.636
837.588	106.797
837.716	106.280
837.844	106.992
837.972	107.153
838.100	106.983
838.228	106.949
838.356	105.771
838.485	106.144
838.613	107.424
838.741	106.958
838.869	107.076
838.997	107.085
839.125	105.975
839.253	105.737
839.381	106.534
839.510	106.339
839.638	105.568
839.766	106.034
839.894	106.492
840.022	107.000
840.150	107.432
840.278	106.059
840.406	107.288
840.535	107.856
840.663	106.610
840.791	105.754
840.919	107.263
841.047	107.364
841.175	106.661
841.303	106.331
841.431	106.873
841.560	107.364
841.688	107.008
841.816	107.085
841.944	106.593
842.072	106.373
842.200	106.983
842.328	107.653
842.456	106.407
842.585	107.907
842.713	107.178
842.841	105.780
842.969	106.585
843.097	106.390
843.225	106.390
843.353	106.186
843.481	105.763
843.610	106.347
843.738	105.610
843.866	106.017
