Rausch_Signal_at_679.99nm_cut_at_1286.00Y_01.dat
24.01.2024
11:20:41
cut middle at Y: 1286.00
top cursor: 1345 down cursor: 1227 mean of: 118 lines , 2560 datapoints
wavelength(nm)	intensity[arb. units]
515.994	104.102
516.122	103.314
516.250	102.661
516.378	102.831
516.506	104.483
516.635	103.864
516.763	103.246
516.891	103.381
517.019	103.678
517.147	103.085
517.275	103.754
517.403	103.568
517.531	103.381
517.660	103.415
517.788	103.178
517.916	102.873
518.044	103.585
518.172	103.017
518.300	103.364
518.428	103.085
518.556	103.356
518.685	102.890
518.813	104.110
518.941	103.661
519.069	103.610
519.197	103.432
519.325	103.847
519.453	103.551
519.581	104.195
519.710	103.593
519.838	103.441
519.966	104.136
520.094	103.975
520.222	103.712
520.350	104.822
520.478	104.008
520.606	103.568
520.735	103.059
520.863	104.085
520.991	103.500
521.119	103.271
521.247	103.737
521.375	102.737
521.503	103.449
521.631	103.263
521.760	103.432
521.888	103.847
522.016	104.754
522.144	104.237
522.272	104.771
522.400	102.822
522.528	103.678
522.656	104.186
522.785	104.661
522.913	102.975
523.041	103.814
523.169	104.102
523.297	103.847
523.425	102.907
523.553	103.322
523.681	103.593
523.810	103.593
523.938	103.653
524.066	103.644
524.194	103.797
524.322	104.958
524.450	103.941
524.578	103.542
524.706	103.907
524.835	103.432
524.963	103.720
525.091	104.093
525.219	103.653
525.347	104.102
525.475	104.398
525.603	104.017
525.731	103.831
525.860	103.873
525.988	103.839
526.116	104.051
526.244	103.568
526.372	103.881
526.500	104.203
526.628	103.924
526.756	103.602
526.885	103.881
527.013	103.763
527.141	104.356
527.269	103.636
527.397	104.331
527.525	104.492
527.653	104.059
527.781	103.432
527.910	103.458
528.038	103.975
528.166	104.195
528.294	104.008
528.422	104.898
528.550	103.059
528.678	103.542
528.806	103.983
528.935	104.305
529.063	104.449
529.191	104.144
529.319	104.297
529.447	104.576
529.575	105.254
529.703	104.246
529.831	104.246
529.960	104.593
530.088	103.653
530.216	105.034
530.344	104.492
530.472	104.517
530.600	104.144
530.728	103.941
530.856	104.068
530.985	104.051
531.113	103.458
531.241	103.932
531.369	104.195
531.497	103.805
531.625	104.110
531.753	104.483
531.881	103.475
532.010	104.085
532.138	103.229
532.266	103.475
532.394	104.288
532.522	104.458
532.650	103.288
532.778	103.949
532.906	104.322
533.035	103.941
533.163	103.958
533.291	104.017
533.419	104.424
533.547	104.025
533.675	104.136
533.803	103.814
533.931	103.737
534.060	104.000
534.188	104.364
534.316	104.034
534.444	104.381
534.572	104.593
534.700	103.644
534.828	103.720
534.956	103.881
535.085	103.763
535.213	104.025
535.341	104.339
535.469	103.636
535.597	104.737
535.725	103.958
535.853	103.924
535.981	103.932
536.110	104.686
536.238	104.432
536.366	104.314
536.494	104.458
536.622	103.754
536.750	103.703
536.878	103.466
537.006	104.364
537.135	105.017
537.263	103.797
537.391	103.534
537.519	104.288
537.647	104.263
537.775	104.339
537.903	103.856
538.031	105.500
538.160	105.322
538.288	104.941
538.416	104.941
538.544	103.975
538.672	104.144
538.800	105.042
538.928	104.186
539.056	104.449
539.185	104.449
539.313	104.720
539.441	104.331
539.569	104.542
539.697	103.966
539.825	103.424
539.953	103.432
540.081	104.237
540.210	103.610
540.338	104.254
540.466	104.000
540.594	103.636
540.722	105.110
540.850	103.814
540.978	103.432
541.106	104.195
541.235	104.475
541.363	104.500
541.491	103.644
541.619	103.983
541.747	103.627
541.875	103.864
542.003	104.517
542.131	104.127
542.260	103.907
542.388	103.619
542.516	104.559
542.644	104.254
542.772	104.229
542.900	103.788
543.028	104.763
543.156	104.492
543.285	103.169
543.413	104.297
543.541	104.610
543.669	104.305
543.797	104.500
543.925	104.305
544.053	103.788
544.181	104.161
544.310	104.390
544.438	105.017
544.566	104.178
544.694	103.814
544.822	103.534
544.950	104.407
545.078	104.051
545.206	103.814
545.335	104.814
545.463	104.042
545.591	103.559
545.719	104.153
545.847	103.458
545.975	104.186
546.103	104.619
546.231	104.119
546.360	104.881
546.488	104.576
546.616	103.924
546.744	104.237
546.872	104.169
547.000	103.636
547.128	104.703
547.256	103.602
547.385	104.000
547.513	103.966
547.641	103.924
547.769	103.280
547.897	104.059
548.025	104.669
548.153	103.975
548.281	104.169
548.410	104.788
548.538	104.356
548.666	104.220
548.794	104.898
548.922	104.000
549.050	104.627
549.178	104.678
549.306	104.271
549.435	104.441
549.563	104.288
549.691	104.127
549.819	103.992
549.947	103.729
550.075	103.873
550.203	104.593
550.331	104.331
550.460	104.127
550.588	103.805
550.716	104.381
550.844	104.568
550.972	103.398
551.100	103.771
551.228	105.068
551.356	104.042
551.485	104.653
551.613	104.780
551.741	103.992
551.869	104.042
551.997	103.458
552.125	104.254
552.253	104.153
552.381	102.839
552.510	104.695
552.638	104.492
552.766	104.610
552.894	104.144
553.022	105.127
553.150	104.034
553.278	104.136
553.406	105.008
553.535	104.297
553.663	104.449
553.791	103.695
553.919	104.500
554.047	104.636
554.175	103.449
554.303	104.475
554.431	104.271
554.560	104.720
554.688	104.703
554.816	104.686
554.944	105.008
555.072	104.017
555.200	104.424
555.328	103.856
555.456	104.051
555.585	104.610
555.713	104.805
555.841	104.568
555.969	104.703
556.097	104.220
556.225	104.059
556.353	104.568
556.481	105.102
556.610	104.754
556.738	104.017
556.866	104.102
556.994	103.780
557.122	104.644
557.250	104.424
557.378	104.644
557.506	103.585
557.635	104.034
557.763	103.983
557.891	104.856
558.019	103.814
558.147	103.661
558.275	104.907
558.403	104.339
558.531	103.280
558.660	103.593
558.788	104.051
558.916	104.186
559.044	103.559
559.172	103.661
559.300	103.754
559.428	103.873
559.556	105.415
559.685	103.754
559.813	103.729
559.941	103.763
560.069	104.153
560.197	104.441
560.325	104.144
560.453	103.814
560.581	104.669
560.710	103.483
560.838	104.093
560.966	104.161
561.094	104.195
561.222	104.754
561.350	104.203
561.478	103.746
561.606	104.085
561.735	104.441
561.863	104.432
561.991	104.161
562.119	104.127
562.247	104.653
562.375	104.127
562.503	104.814
562.631	104.178
562.760	104.788
562.888	103.797
563.016	104.085
563.144	104.907
563.272	104.051
563.400	103.797
563.528	104.288
563.656	104.220
563.785	104.559
563.913	103.695
564.041	104.042
564.169	104.169
564.297	104.347
564.425	103.924
564.553	105.153
564.681	104.814
564.810	103.441
564.938	103.746
565.066	104.025
565.194	104.195
565.322	104.415
565.450	104.034
565.578	104.398
565.706	103.797
565.835	103.975
565.963	103.551
566.091	103.814
566.219	104.568
566.347	103.712
566.475	103.864
566.603	103.932
566.731	104.102
566.860	104.017
566.988	103.763
567.116	104.305
567.244	103.678
567.372	103.636
567.500	104.737
567.628	103.602
567.756	104.076
567.885	104.686
568.013	104.483
568.141	103.686
568.269	104.297
568.397	103.551
568.525	104.610
568.653	104.220
568.781	103.941
568.910	104.780
569.038	104.644
569.166	104.271
569.294	103.915
569.422	103.763
569.550	103.695
569.678	104.398
569.806	103.669
569.935	104.771
570.063	104.076
570.191	103.653
570.319	103.364
570.447	103.737
570.575	104.212
570.703	103.585
570.831	103.712
570.960	104.008
571.088	103.559
571.216	103.508
571.344	105.085
571.472	104.483
571.600	103.924
571.728	104.508
571.856	103.949
571.985	103.466
572.113	104.517
572.241	104.186
572.369	104.059
572.497	103.407
572.625	103.898
572.753	104.508
572.881	103.890
573.010	104.975
573.138	104.271
573.266	104.788
573.394	104.576
573.522	103.525
573.650	103.712
573.778	104.076
573.906	104.407
574.035	104.492
574.163	103.508
574.291	103.864
574.419	103.975
574.547	103.805
574.675	104.475
574.803	103.636
574.931	103.856
575.060	103.924
575.188	103.839
575.316	105.076
575.444	104.144
575.572	103.898
575.700	104.271
575.828	105.992
575.956	104.551
576.085	103.949
576.213	104.669
576.341	104.492
576.469	104.619
576.597	104.059
576.725	104.017
576.853	104.415
576.981	103.432
577.110	103.119
577.238	104.602
577.366	104.136
577.494	103.390
577.622	102.864
577.750	104.127
577.878	105.127
578.006	104.229
578.135	104.890
578.263	104.407
578.391	104.085
578.519	104.144
578.647	104.237
578.775	103.110
578.903	104.653
579.031	104.169
579.160	103.949
579.288	104.432
579.416	104.220
579.544	104.322
579.672	104.280
579.800	103.873
579.928	104.085
580.056	104.864
580.185	104.017
580.313	104.068
580.441	104.085
580.569	103.347
580.697	104.703
580.825	104.110
580.953	104.525
581.081	104.669
581.210	104.254
581.338	104.636
581.466	104.169
581.594	104.466
581.722	103.551
581.850	103.653
581.978	103.500
582.106	103.390
582.235	104.508
582.363	104.246
582.491	105.059
582.619	104.627
582.747	104.568
582.875	104.500
583.003	103.797
583.131	103.712
583.260	104.186
583.388	104.254
583.516	103.831
583.644	103.958
583.772	104.127
583.900	104.076
584.028	103.008
584.156	104.237
584.285	104.483
584.413	103.822
584.541	104.932
584.669	103.441
584.797	103.907
584.925	103.915
585.053	104.500
585.181	104.093
585.310	104.686
585.438	104.737
585.566	104.347
585.694	104.220
585.822	103.636
585.950	103.839
586.078	104.144
586.206	104.305
586.335	104.034
586.463	105.364
586.591	104.593
586.719	104.958
586.847	103.610
586.975	104.314
587.103	104.297
587.231	104.653
587.360	104.237
587.488	104.661
587.616	104.305
587.744	104.356
587.872	103.534
588.000	104.093
588.128	104.076
588.256	104.042
588.385	104.093
588.513	103.551
588.641	104.136
588.769	104.051
588.897	104.415
589.025	104.737
589.153	104.203
589.281	103.034
589.410	104.483
589.538	104.763
589.666	104.271
589.794	104.492
589.922	103.627
590.050	104.000
590.178	104.449
590.306	103.881
590.435	104.322
590.563	104.051
590.691	105.000
590.819	103.890
590.947	104.907
591.075	103.932
591.203	104.042
591.331	104.025
591.460	104.161
591.588	103.619
591.716	103.992
591.844	104.525
591.972	103.051
592.100	104.720
592.228	104.703
592.356	103.966
592.485	105.322
592.613	104.958
592.741	104.763
592.869	104.508
592.997	103.958
593.125	103.720
593.253	104.161
593.381	104.398
593.510	103.220
593.638	104.102
593.766	103.542
593.894	103.576
594.022	104.432
594.150	104.864
594.278	104.669
594.406	103.424
594.535	104.695
594.663	104.856
594.791	105.025
594.919	103.695
595.047	104.458
595.175	105.169
595.303	104.992
595.431	104.864
595.560	103.958
595.688	104.839
595.816	104.941
595.944	104.797
596.072	104.839
596.200	104.847
596.328	104.695
596.456	104.169
596.585	104.322
596.713	104.415
596.841	104.890
596.969	104.000
597.097	104.839
597.225	104.161
597.353	104.500
597.481	104.534
597.610	104.763
597.738	105.102
597.866	104.153
597.994	104.992
598.122	105.153
598.250	103.983
598.378	105.407
598.506	104.822
598.635	105.169
598.763	104.585
598.891	104.381
599.019	104.288
599.147	103.424
599.275	103.576
599.403	104.475
599.531	104.644
599.660	103.280
599.788	104.992
599.916	104.915
600.044	104.347
600.172	105.398
600.300	103.805
600.428	104.475
600.556	104.271
600.685	103.653
600.813	103.331
600.941	105.059
601.069	103.678
601.197	104.466
601.325	103.958
601.453	104.237
601.581	104.568
601.710	104.331
601.838	104.822
601.966	105.280
602.094	104.008
602.222	104.203
602.350	104.212
602.478	104.322
602.606	104.525
602.735	105.042
602.863	104.144
602.991	104.525
603.119	104.542
603.247	104.669
603.375	104.508
603.503	103.568
603.631	104.280
603.760	104.839
603.888	104.678
604.016	103.983
604.144	104.127
604.272	104.907
604.400	104.246
604.528	104.678
604.656	105.525
604.785	104.381
604.913	104.822
605.041	104.805
605.169	104.492
605.297	103.992
605.425	104.127
605.553	104.627
605.681	104.729
605.810	104.076
605.938	105.203
606.066	104.780
606.194	104.525
606.322	104.585
606.450	104.661
606.578	104.576
606.706	104.195
606.835	104.669
606.963	104.229
607.091	104.771
607.219	104.373
607.347	104.780
607.475	104.085
607.603	104.949
607.731	104.373
607.860	105.110
607.988	103.661
608.116	104.932
608.244	104.695
608.372	104.669
608.500	104.822
608.628	103.898
608.756	104.805
608.885	104.331
609.013	104.017
609.141	104.085
609.269	104.653
609.397	104.644
609.525	104.941
609.653	104.246
609.781	104.720
609.910	104.661
610.038	104.254
610.166	104.288
610.294	105.144
610.422	104.424
610.550	104.568
610.678	103.856
610.806	104.551
610.935	104.551
611.063	104.432
611.191	104.102
611.319	103.992
611.447	104.780
611.575	104.000
611.703	104.754
611.831	104.517
611.960	104.203
612.088	104.381
612.216	104.839
612.344	104.729
612.472	104.364
612.600	103.907
612.728	104.576
612.856	103.898
612.985	104.229
613.113	104.025
613.241	104.729
613.369	105.093
613.497	103.890
613.625	104.449
613.753	103.797
613.881	104.271
614.010	104.958
614.138	104.458
614.266	104.958
614.394	103.881
614.522	104.178
614.650	103.983
614.778	104.788
614.906	104.712
615.035	105.441
615.163	104.949
615.291	103.898
615.419	104.873
615.547	104.466
615.675	103.568
615.803	103.822
615.931	104.441
616.060	104.280
616.188	103.695
616.316	104.288
616.444	104.356
616.572	103.780
616.700	105.254
616.828	104.669
616.956	103.212
617.085	104.102
617.213	104.644
617.341	104.263
617.469	104.356
617.597	104.695
617.725	103.856
617.853	103.966
617.981	104.331
618.110	103.483
618.238	103.703
618.366	104.008
618.494	104.559
618.622	104.797
618.750	104.839
618.878	105.008
619.006	103.703
619.135	104.763
619.263	104.898
619.391	104.127
619.519	104.458
619.647	104.280
619.775	104.805
619.903	104.314
620.031	103.975
620.160	103.941
620.288	105.280
620.416	103.839
620.544	103.610
620.672	104.576
620.800	104.288
620.928	104.619
621.056	104.280
621.185	104.297
621.313	103.924
621.441	105.008
621.569	104.627
621.697	104.958
621.825	104.254
621.953	104.763
622.081	104.644
622.210	104.653
622.338	103.831
622.466	104.619
622.594	104.746
622.722	104.881
622.850	104.407
622.978	104.492
623.106	104.610
623.235	104.627
623.363	104.593
623.491	104.458
623.619	104.627
623.747	104.678
623.875	104.229
624.003	104.475
624.131	104.305
624.260	104.331
624.388	104.636
624.516	105.398
624.644	104.381
624.772	104.508
624.900	104.847
625.028	103.941
625.156	104.534
625.285	104.576
625.413	104.280
625.541	105.280
625.669	104.610
625.797	105.025
625.925	104.949
626.053	104.949
626.181	104.746
626.310	104.424
626.438	104.449
626.566	105.271
626.694	104.831
626.822	104.593
626.950	104.186
627.078	104.610
627.206	104.661
627.335	103.983
627.463	104.305
627.591	105.186
627.719	104.619
627.847	104.949
627.975	103.881
628.103	105.169
628.231	104.500
628.360	105.085
628.488	105.500
628.616	104.873
628.744	104.695
628.872	105.432
629.000	104.856
629.128	104.576
629.256	105.110
629.385	104.661
629.513	104.381
629.641	104.661
629.769	104.797
629.897	104.364
630.025	105.297
630.153	104.805
630.281	104.441
630.410	103.788
630.538	104.161
630.666	104.161
630.794	104.305
630.922	104.237
631.050	104.415
631.178	104.458
631.306	105.178
631.435	104.280
631.563	104.347
631.691	104.076
631.819	104.000
631.947	104.703
632.075	104.720
632.203	105.136
632.331	105.042
632.460	104.508
632.588	103.839
632.716	104.017
632.844	104.525
632.972	105.025
633.100	104.297
633.228	104.992
633.356	104.517
633.485	103.932
633.613	105.068
633.741	104.602
633.869	104.720
633.997	104.610
634.125	104.958
634.253	105.136
634.381	104.475
634.510	104.576
634.638	104.644
634.766	103.703
634.894	104.907
635.022	104.644
635.150	105.093
635.278	105.076
635.406	104.407
635.535	104.449
635.663	104.576
635.791	103.805
635.919	104.898
636.047	104.492
636.175	104.280
636.303	105.288
636.431	105.178
636.560	104.398
636.688	104.771
636.816	104.492
636.944	104.356
637.072	105.483
637.200	104.907
637.328	104.127
637.456	104.958
637.585	104.924
637.713	104.966
637.841	104.237
637.969	105.271
638.097	104.881
638.225	104.551
638.353	103.814
638.481	104.059
638.610	104.034
638.738	103.008
638.866	104.788
638.994	104.576
639.122	104.831
639.250	104.525
639.378	105.025
639.506	104.042
639.635	104.331
639.763	104.822
639.891	105.017
640.019	105.441
640.147	104.915
640.275	104.610
640.403	104.661
640.531	104.864
640.660	103.822
640.788	104.831
640.916	104.788
641.044	104.873
641.172	104.212
641.300	104.780
641.428	104.500
641.556	103.398
641.685	104.169
641.813	104.890
641.941	104.746
642.069	103.788
642.197	104.347
642.325	104.119
642.453	104.593
642.581	104.085
642.710	103.949
642.838	104.492
642.966	104.864
643.094	104.390
643.222	104.559
643.350	104.441
643.478	104.746
643.606	104.381
643.735	103.441
643.863	104.966
643.991	105.280
644.119	103.890
644.247	104.797
644.375	104.373
644.503	105.153
644.631	105.000
644.760	104.797
644.888	104.644
645.016	104.263
645.144	105.144
645.272	104.873
645.400	104.195
645.528	104.644
645.656	103.483
645.785	105.703
645.913	104.653
646.041	104.619
646.169	104.432
646.297	104.466
646.425	105.441
646.553	105.246
646.681	104.822
646.810	104.492
646.938	104.161
647.066	103.898
647.194	104.271
647.322	104.576
647.450	104.398
647.578	104.941
647.706	104.542
647.835	104.797
647.963	104.915
648.091	103.797
648.219	103.966
648.347	104.373
648.475	104.136
648.603	104.322
648.731	104.492
648.860	104.864
648.988	104.093
649.116	104.661
649.244	103.729
649.372	104.381
649.500	104.110
649.628	104.271
649.756	104.678
649.885	105.034
650.013	104.424
650.141	103.636
650.269	104.907
650.397	104.712
650.525	104.229
650.653	104.890
650.781	104.381
650.910	104.712
651.038	104.466
651.166	104.517
651.294	105.153
651.422	104.449
651.550	104.720
651.678	103.415
651.806	104.203
651.935	104.153
652.063	105.008
652.191	104.373
652.319	104.178
652.447	104.534
652.575	104.644
652.703	103.534
652.831	104.110
652.960	104.220
653.088	104.568
653.216	103.881
653.344	104.669
653.472	104.415
653.600	104.517
653.728	103.788
653.856	104.449
653.985	104.229
654.113	104.924
654.241	105.288
654.369	104.703
654.497	105.000
654.625	104.229
654.753	104.398
654.881	104.237
655.010	104.347
655.138	103.178
655.266	104.059
655.394	104.068
655.522	104.331
655.650	104.220
655.778	104.466
655.906	104.534
656.035	104.831
656.163	104.534
656.291	104.195
656.419	104.322
656.547	104.508
656.675	104.720
656.803	104.610
656.931	104.720
657.060	104.805
657.188	104.195
657.316	104.686
657.444	104.983
657.572	104.110
657.700	104.881
657.828	104.712
657.956	104.008
658.085	104.729
658.213	104.915
658.341	103.678
658.469	104.551
658.597	104.466
658.725	105.034
658.853	104.500
658.981	103.932
659.110	104.763
659.238	104.941
659.366	104.051
659.494	104.297
659.622	104.703
659.750	103.890
659.878	104.576
660.006	104.898
660.135	105.008
660.263	104.246
660.391	104.034
660.519	104.737
660.647	104.008
660.775	104.271
660.903	103.966
661.031	103.593
661.160	104.576
661.288	104.136
661.416	104.500
661.544	103.737
661.672	104.195
661.800	104.347
661.928	104.432
662.056	104.890
662.185	104.203
662.313	104.237
662.441	103.847
662.569	104.356
662.697	104.542
662.825	103.983
662.953	104.136
663.081	104.034
663.210	103.212
663.338	104.627
663.466	104.576
663.594	104.093
663.722	103.119
663.850	104.186
663.978	104.593
664.106	105.000
664.235	104.458
664.363	104.110
664.491	103.407
664.619	104.746
664.747	103.788
664.875	104.025
665.003	104.280
665.131	104.271
665.260	104.669
665.388	104.051
665.516	104.017
665.644	104.390
665.772	104.254
665.900	104.381
666.028	104.627
666.156	104.254
666.285	103.763
666.413	104.288
666.541	104.356
666.669	104.246
666.797	104.907
666.925	103.720
667.053	104.432
667.181	104.881
667.310	104.034
667.438	104.593
667.566	104.339
667.694	104.017
667.822	104.280
667.950	104.678
668.078	104.475
668.206	103.636
668.335	103.636
668.463	104.814
668.591	104.814
668.719	103.898
668.847	103.508
668.975	104.508
669.103	103.898
669.231	104.025
669.360	103.771
669.488	104.585
669.616	103.729
669.744	103.822
669.872	103.941
670.000	105.068
670.128	104.602
670.256	104.263
670.385	104.449
670.513	105.102
670.641	104.034
670.769	104.161
670.897	104.356
671.025	104.424
671.153	104.229
671.281	104.025
671.410	103.763
671.538	104.449
671.666	103.958
671.794	104.737
671.922	104.051
672.050	104.034
672.178	103.746
672.306	104.483
672.435	104.754
672.563	104.780
672.691	104.458
672.819	104.593
672.947	104.737
673.075	104.797
673.203	104.610
673.331	104.814
673.460	104.551
673.588	104.102
673.716	104.483
673.844	103.475
673.972	104.703
674.100	104.602
674.228	104.390
674.356	104.508
674.485	104.237
674.613	104.203
674.741	103.941
674.869	103.958
674.997	104.271
675.125	105.076
675.253	103.958
675.381	104.364
675.510	104.576
675.638	104.263
675.766	105.102
675.894	103.686
676.022	103.542
676.150	104.915
676.278	105.000
676.406	104.686
676.535	103.551
676.663	103.619
676.791	103.542
676.919	103.847
677.047	103.975
677.175	104.534
677.303	104.136
677.431	105.297
677.560	103.686
677.688	104.534
677.816	103.610
677.944	104.322
678.072	104.119
678.200	104.492
678.328	103.847
678.456	104.924
678.585	104.093
678.713	103.636
678.841	104.508
678.969	103.398
679.097	104.992
679.225	103.856
679.353	104.331
679.481	104.051
679.610	104.653
679.738	104.636
679.866	104.398
679.994	104.203
680.122	103.873
680.250	104.525
680.378	103.695
680.506	104.212
680.635	104.551
680.763	104.695
680.891	104.483
681.019	104.746
681.147	104.008
681.275	104.602
681.403	104.407
681.531	103.932
681.660	103.941
681.788	104.636
681.916	104.008
682.044	103.941
682.172	103.610
682.300	104.585
682.428	104.746
682.556	104.568
682.685	104.407
682.813	103.407
682.941	102.907
683.069	103.695
683.197	103.551
683.325	104.076
683.453	104.864
683.581	104.102
683.710	104.763
683.838	104.237
683.966	103.822
684.094	104.246
684.222	103.839
684.350	104.051
684.478	103.686
684.606	104.025
684.735	104.831
684.863	104.508
684.991	105.203
685.119	104.492
685.247	103.551
685.375	104.093
685.503	103.831
685.631	103.712
685.760	104.381
685.888	104.636
686.016	104.475
686.144	104.186
686.272	104.322
686.400	104.271
686.528	104.297
686.656	103.415
686.785	104.754
686.913	103.814
687.041	103.678
687.169	104.110
687.297	104.102
687.425	104.229
687.553	103.788
687.681	104.347
687.810	104.119
687.938	104.085
688.066	104.169
688.194	104.559
688.322	103.720
688.450	104.271
688.578	103.898
688.706	104.508
688.835	104.220
688.963	104.483
689.091	104.551
689.219	104.017
689.347	105.246
689.475	104.763
689.603	103.644
689.731	103.831
689.860	104.525
689.988	103.695
690.116	103.627
690.244	104.898
690.372	104.839
690.500	104.551
690.628	103.924
690.756	104.415
690.885	104.415
691.013	104.203
691.141	104.314
691.269	104.593
691.397	104.864
691.525	104.534
691.653	104.636
691.781	104.873
691.910	103.568
692.038	104.025
692.166	103.415
692.294	104.593
692.422	104.424
692.550	103.534
692.678	104.085
692.806	104.619
692.935	104.068
693.063	103.932
693.191	103.737
693.319	104.254
693.447	104.254
693.575	103.898
693.703	103.958
693.831	103.814
693.960	103.881
694.088	103.847
694.216	104.746
694.344	104.398
694.472	104.381
694.600	103.797
694.728	104.000
694.856	104.119
694.985	104.576
695.113	104.407
695.241	104.237
695.369	103.992
695.497	104.508
695.625	104.432
695.753	103.932
695.881	103.619
696.010	103.881
696.138	104.025
696.266	104.034
696.394	104.585
696.522	104.008
696.650	104.110
696.778	104.059
696.906	104.212
697.035	104.144
697.163	103.356
697.291	104.229
697.419	104.831
697.547	104.331
697.675	103.983
697.803	104.449
697.931	104.339
698.060	103.873
698.188	103.661
698.316	104.992
698.444	104.076
698.572	103.339
698.700	103.619
698.828	103.907
698.956	103.636
699.085	103.983
699.213	104.254
699.341	103.847
699.469	103.941
699.597	104.483
699.725	105.034
699.853	103.873
699.981	103.458
700.110	103.966
700.238	103.169
700.366	103.729
700.494	104.161
700.622	104.161
700.750	103.737
700.878	104.958
701.006	105.059
701.135	104.610
701.263	102.720
701.391	103.314
701.519	103.661
701.647	104.924
701.775	104.051
701.903	104.136
702.031	104.110
702.160	104.508
702.288	104.034
702.416	103.627
702.544	104.161
702.672	104.475
702.800	104.314
702.928	104.653
703.056	104.568
703.185	104.585
703.313	104.093
703.441	104.475
703.569	104.458
703.697	104.297
703.825	103.229
703.953	104.186
704.081	103.212
704.210	104.085
704.338	103.754
704.466	103.305
704.594	103.720
704.722	104.890
704.850	103.297
704.978	104.119
705.106	103.941
705.235	104.500
705.363	103.983
705.491	104.508
705.619	104.500
705.747	104.441
705.875	104.195
706.003	103.237
706.131	103.703
706.260	104.093
706.388	103.551
706.516	104.932
706.644	104.254
706.772	103.729
706.900	104.229
707.028	103.949
707.156	104.712
707.285	103.797
707.413	104.161
707.541	103.458
707.669	105.051
707.797	104.619
707.925	103.534
708.053	104.576
708.181	104.746
708.310	103.822
708.438	104.619
708.566	104.568
708.694	104.347
708.822	104.314
708.950	105.093
709.078	104.017
709.206	104.093
709.335	104.161
709.463	103.915
709.591	104.373
709.719	104.153
709.847	103.754
709.975	104.364
710.103	104.398
710.231	103.958
710.360	104.203
710.488	103.593
710.616	103.839
710.744	104.695
710.872	103.703
711.000	104.644
711.128	104.390
711.256	103.881
711.385	104.483
711.513	104.305
711.641	103.831
711.769	104.305
711.897	104.398
712.025	104.076
712.153	103.636
712.281	104.669
712.410	104.364
712.538	104.542
712.666	103.331
712.794	104.161
712.922	104.297
713.050	104.008
713.178	104.932
713.306	103.915
713.435	104.305
713.563	104.492
713.691	103.551
713.819	104.653
713.947	104.339
714.075	103.949
714.203	104.610
714.331	104.627
714.460	104.220
714.588	104.390
714.716	104.576
714.844	103.941
714.972	104.271
715.100	104.373
715.228	104.534
715.356	103.890
715.485	104.492
715.613	103.008
715.741	104.059
715.869	103.847
715.997	104.907
716.125	104.263
716.253	103.373
716.381	104.432
716.510	103.780
716.638	105.407
716.766	104.068
716.894	104.000
717.022	103.576
717.150	103.898
717.278	104.864
717.406	104.076
717.535	103.508
717.663	103.644
717.791	104.500
717.919	104.085
718.047	104.602
718.175	104.534
718.303	103.703
718.431	103.856
718.560	103.576
718.688	103.797
718.816	103.983
718.944	104.229
719.072	103.907
719.200	104.407
719.328	103.686
719.456	103.542
719.585	104.415
719.713	104.237
719.841	104.415
719.969	104.229
720.097	104.017
720.225	103.966
720.353	103.941
720.481	104.864
720.610	104.144
720.738	103.864
720.866	104.144
720.994	103.983
721.122	104.407
721.250	103.847
721.378	103.754
721.506	103.644
721.635	103.983
721.763	103.475
721.891	103.992
722.019	104.381
722.147	103.695
722.275	104.220
722.403	103.492
722.531	104.042
722.660	104.271
722.788	104.297
722.916	104.746
723.044	103.703
723.172	104.458
723.300	104.347
723.428	103.814
723.556	104.119
723.685	104.280
723.813	103.797
723.941	103.610
724.069	103.559
724.197	104.297
724.325	104.025
724.453	103.441
724.581	103.475
724.710	103.822
724.838	103.585
724.966	103.186
725.094	104.398
725.222	103.661
725.350	102.763
725.478	104.059
725.606	103.864
725.735	104.051
725.863	103.958
725.991	102.941
726.119	103.712
726.247	103.856
726.375	104.339
726.503	104.271
726.631	104.390
726.760	104.000
726.888	105.042
727.016	103.856
727.144	103.288
727.272	104.034
727.400	103.593
727.528	103.788
727.656	103.602
727.785	103.788
727.913	104.051
728.041	104.500
728.169	103.517
728.297	102.958
728.425	103.475
728.553	104.093
728.681	103.551
728.810	103.305
728.938	103.729
729.066	103.992
729.194	104.314
729.322	104.127
729.450	104.034
729.578	104.008
729.706	104.280
729.835	103.661
729.963	104.771
730.091	103.695
730.219	104.102
730.347	103.517
730.475	103.797
730.603	104.034
730.731	103.661
730.860	103.839
730.988	103.644
731.116	104.254
731.244	104.373
731.372	103.831
731.500	103.712
731.628	104.788
731.756	104.229
731.885	104.373
732.013	104.025
732.141	103.407
732.269	103.585
732.397	104.720
732.525	104.805
732.653	103.873
732.781	103.941
732.910	104.025
733.038	103.763
733.166	104.653
733.294	104.975
733.422	104.280
733.550	103.390
733.678	103.381
733.806	103.432
733.935	103.695
734.063	104.144
734.191	103.847
734.319	103.737
734.447	103.492
734.575	103.958
734.703	104.424
734.831	104.195
734.960	103.314
735.088	103.508
735.216	104.110
735.344	103.746
735.472	103.822
735.600	103.288
735.728	103.000
735.856	103.542
735.985	103.466
736.113	104.839
736.241	102.941
736.369	103.924
736.497	103.288
736.625	104.754
736.753	103.398
736.881	103.695
737.010	103.322
737.138	103.559
737.266	104.322
737.394	103.695
737.522	103.932
737.650	103.966
737.778	104.212
737.906	102.636
738.035	103.415
738.163	104.593
738.291	103.881
738.419	103.432
738.547	103.729
738.675	103.525
738.803	103.695
738.931	103.992
739.060	104.051
739.188	103.907
739.316	104.305
739.444	104.229
739.572	103.559
739.700	104.136
739.828	103.797
739.956	103.525
740.085	103.449
740.213	103.356
740.341	104.314
740.469	103.610
740.597	103.907
740.725	104.831
740.853	104.136
740.981	103.797
741.110	104.161
741.238	103.508
741.366	104.347
741.494	105.161
741.622	103.720
741.750	104.212
741.878	104.263
742.006	103.822
742.135	103.415
742.263	104.280
742.391	103.686
742.519	104.263
742.647	104.068
742.775	104.059
742.903	103.890
743.031	103.831
743.160	103.483
743.288	103.102
743.416	103.881
743.544	103.593
743.672	103.712
743.800	103.568
743.928	103.585
744.056	102.746
744.185	103.475
744.313	103.585
744.441	103.856
744.569	104.076
744.697	103.525
744.825	104.051
744.953	103.449
745.081	103.407
745.210	104.627
745.338	103.153
745.466	103.771
745.594	103.805
745.722	103.992
745.850	103.415
745.978	104.449
746.106	103.161
746.235	104.102
746.363	104.542
746.491	103.144
746.619	104.305
746.747	104.542
746.875	103.551
747.003	103.966
747.131	104.220
747.260	104.297
747.388	104.339
747.516	104.534
747.644	103.653
747.772	103.729
747.900	104.492
748.028	103.593
748.156	104.331
748.285	103.932
748.413	104.153
748.541	104.127
748.669	103.737
748.797	103.483
748.925	102.992
749.053	102.771
749.181	103.398
749.310	103.364
749.438	103.754
749.566	104.534
749.694	103.831
749.822	104.585
749.950	103.788
750.078	104.331
750.206	103.085
750.335	103.636
750.463	104.873
750.591	103.381
750.719	104.508
750.847	102.534
750.975	103.424
751.103	103.280
751.231	104.288
751.360	103.814
751.488	103.915
751.616	103.602
751.744	103.025
751.872	103.602
752.000	103.297
752.128	103.568
752.256	104.161
752.385	104.051
752.513	103.398
752.641	102.576
752.769	103.195
752.897	104.051
753.025	103.415
753.153	104.263
753.281	103.678
753.410	104.314
753.538	103.873
753.666	103.492
753.794	103.517
753.922	104.263
754.050	102.805
754.178	103.034
754.306	103.898
754.435	102.907
754.563	103.992
754.691	103.754
754.819	102.483
754.947	103.746
755.075	104.559
755.203	103.576
755.331	102.695
755.460	103.822
755.588	103.873
755.716	103.517
755.844	102.941
755.972	103.017
756.100	103.508
756.228	103.331
756.356	103.254
756.485	104.424
756.613	103.525
756.741	103.110
756.869	103.458
756.997	103.805
757.125	104.593
757.253	103.466
757.381	103.297
757.510	104.178
757.638	104.042
757.766	103.085
757.894	103.059
758.022	103.780
758.150	103.161
758.278	104.314
758.406	102.975
758.535	104.017
758.663	104.110
758.791	103.500
758.919	103.712
759.047	103.746
759.175	103.890
759.303	104.178
759.431	102.788
759.560	102.712
759.688	103.517
759.816	104.110
759.944	104.525
760.072	103.466
760.200	103.847
760.328	103.737
760.456	104.347
760.585	103.432
760.713	102.788
760.841	104.254
760.969	103.381
761.097	103.271
761.225	103.458
761.353	103.847
761.481	104.085
761.610	103.686
761.738	103.712
761.866	104.449
761.994	103.449
762.122	103.500
762.250	103.847
762.378	103.585
762.506	104.000
762.635	103.890
762.763	104.314
762.891	104.008
763.019	103.441
763.147	104.483
763.275	104.398
763.403	103.661
763.531	103.153
763.660	103.644
763.788	103.915
763.916	103.915
764.044	104.500
764.172	105.000
764.300	103.627
764.428	103.814
764.556	103.788
764.685	104.042
764.813	103.924
764.941	103.263
765.069	104.314
765.197	103.475
765.325	102.508
765.453	104.492
765.581	104.085
765.710	103.424
765.838	102.975
765.966	103.822
766.094	104.288
766.222	103.695
766.350	103.381
766.478	103.602
766.606	103.644
766.735	103.559
766.863	103.415
766.991	104.288
767.119	103.737
767.247	103.737
767.375	103.271
767.503	102.975
767.631	104.364
767.760	103.847
767.888	103.788
768.016	103.797
768.144	103.449
768.272	103.254
768.400	104.763
768.528	104.492
768.656	103.305
768.785	103.814
768.913	103.212
769.041	103.644
769.169	103.610
769.297	103.508
769.425	103.347
769.553	103.720
769.681	103.314
769.810	105.153
769.938	103.169
770.066	103.364
770.194	103.492
770.322	103.271
770.450	104.525
770.578	103.763
770.706	104.254
770.835	104.042
770.963	104.161
771.091	103.780
771.219	103.864
771.347	103.941
771.475	104.280
771.603	104.161
771.731	104.314
771.860	104.169
771.988	103.949
772.116	104.500
772.244	103.288
772.372	103.729
772.500	103.763
772.628	104.085
772.756	104.119
772.885	103.737
773.013	104.127
773.141	103.347
773.269	103.475
773.397	103.254
773.525	103.881
773.653	103.610
773.781	103.949
773.910	103.059
774.038	103.059
774.166	103.907
774.294	104.008
774.422	102.831
774.550	103.797
774.678	103.407
774.806	103.602
774.935	103.780
775.063	104.364
775.191	103.763
775.319	104.161
775.447	104.127
775.575	104.212
775.703	103.966
775.831	103.000
775.960	103.008
776.088	103.873
776.216	103.466
776.344	103.449
776.472	103.636
776.600	104.042
776.728	103.280
776.856	103.364
776.985	104.085
777.113	103.432
777.241	103.576
777.369	103.432
777.497	103.076
777.625	103.347
777.753	103.661
777.881	104.059
778.010	103.669
778.138	104.136
778.266	102.619
778.394	103.517
778.522	104.314
778.650	103.458
778.778	102.525
778.906	103.644
779.035	104.288
779.163	103.229
779.291	103.873
779.419	104.102
779.547	103.941
779.675	104.364
779.803	103.890
779.931	103.263
780.060	104.102
780.188	104.127
780.316	103.407
780.444	104.127
780.572	103.364
780.700	103.364
780.828	103.737
780.956	104.195
781.085	103.661
781.213	103.619
781.341	103.483
781.469	103.958
781.597	103.390
781.725	104.119
781.853	104.068
781.981	103.839
782.110	103.975
782.238	103.983
782.366	103.653
782.494	103.542
782.622	104.415
782.750	104.144
782.878	104.322
783.006	104.551
783.135	103.941
783.263	102.729
783.391	103.322
783.519	103.492
783.647	103.068
783.775	103.178
783.903	103.915
784.031	103.364
784.160	103.551
784.288	104.169
784.416	103.924
784.544	103.042
784.672	103.644
784.800	103.508
784.928	103.729
785.056	102.856
785.185	104.000
785.313	103.085
785.441	102.966
785.569	104.288
785.697	104.042
785.825	103.407
785.953	103.280
786.081	103.932
786.210	103.042
786.338	103.500
786.466	103.610
786.594	103.288
786.722	103.449
786.850	103.483
786.978	103.034
787.106	103.517
787.235	103.686
787.363	104.305
787.491	104.025
787.619	104.136
787.747	104.237
787.875	103.220
788.003	103.280
788.131	102.458
788.260	103.559
788.388	104.280
788.516	103.695
788.644	103.763
788.772	103.458
788.900	104.254
789.028	102.746
789.156	103.831
789.285	103.364
789.413	103.449
789.541	103.559
789.669	103.169
789.797	102.958
789.925	103.941
790.053	104.653
790.181	103.551
790.310	103.093
790.438	103.373
790.566	103.593
790.694	103.441
790.822	103.542
790.950	104.153
791.078	103.661
791.206	102.415
791.335	104.263
791.463	103.949
791.591	103.432
791.719	104.593
791.847	103.186
791.975	102.508
792.103	103.169
792.231	104.559
792.360	103.576
792.488	103.390
792.616	104.610
792.744	103.136
792.872	102.856
793.000	104.424
793.128	103.771
793.256	104.169
793.385	103.254
793.513	104.102
793.641	103.568
793.769	104.280
793.897	103.593
794.025	103.992
794.153	104.534
794.281	103.110
794.410	103.331
794.538	103.754
794.666	103.602
794.794	103.873
794.922	103.864
795.050	103.602
795.178	103.424
795.306	102.686
795.435	103.407
795.563	103.008
795.691	102.992
795.819	102.525
795.947	103.627
796.075	104.280
796.203	104.254
796.331	103.449
796.460	103.559
796.588	103.661
796.716	103.381
796.844	103.669
796.972	104.322
797.100	103.627
797.228	103.314
797.356	104.534
797.485	103.847
797.613	104.475
797.741	103.856
797.869	104.000
797.997	103.932
798.125	103.619
798.253	103.398
798.381	103.085
798.510	103.466
798.638	102.898
798.766	104.203
798.894	103.873
799.022	103.500
799.150	104.144
799.278	103.263
799.406	104.449
799.535	103.424
799.663	103.636
799.791	103.441
799.919	103.644
800.047	104.025
800.175	103.898
800.303	103.136
800.431	104.703
800.560	103.466
800.688	103.161
800.816	104.466
800.944	103.237
801.072	103.890
801.200	103.890
801.328	104.059
801.456	104.331
801.585	104.051
801.713	104.017
801.841	104.042
801.969	103.907
802.097	103.432
802.225	103.703
802.353	103.525
802.481	103.525
802.610	103.847
802.738	103.229
802.866	103.788
802.994	103.068
803.122	103.381
803.250	104.220
803.378	103.644
803.506	103.873
803.635	104.136
803.763	103.975
803.891	103.517
804.019	104.203
804.147	104.381
804.275	103.585
804.403	103.407
804.531	102.949
804.660	102.619
804.788	103.627
804.916	103.212
805.044	103.110
805.172	104.059
805.300	103.025
805.428	104.220
805.556	103.305
805.685	104.280
805.813	103.356
805.941	103.076
806.069	104.627
806.197	104.373
806.325	103.093
806.453	104.169
806.581	103.534
806.710	103.195
806.838	103.534
806.966	103.610
807.094	103.576
807.222	103.992
807.350	103.669
807.478	103.627
807.606	103.254
807.735	103.517
807.863	104.093
807.991	104.254
808.119	103.381
808.247	103.881
808.375	103.390
808.503	103.636
808.631	103.847
808.760	104.229
808.888	103.441
809.016	103.466
809.144	104.068
809.272	103.907
809.400	103.500
809.528	103.746
809.656	103.331
809.785	103.093
809.913	103.636
810.041	103.356
810.169	103.119
810.297	103.492
810.425	103.212
810.553	102.602
810.681	104.161
810.810	103.602
810.938	104.042
811.066	103.475
811.194	103.237
811.322	103.398
811.450	103.644
811.578	104.568
811.706	103.890
811.835	103.703
811.963	103.042
812.091	103.983
812.219	104.051
812.347	103.415
812.475	104.102
812.603	104.229
812.731	102.678
812.860	104.161
812.988	103.246
813.116	103.458
813.244	103.754
813.372	103.585
813.500	103.890
813.628	103.534
813.756	103.297
813.885	104.280
814.013	104.212
814.141	104.271
814.269	104.568
814.397	104.364
814.525	103.661
814.653	103.754
814.781	103.483
814.910	103.636
815.038	103.907
815.166	103.695
815.294	104.500
815.422	103.966
815.550	103.347
815.678	103.797
815.806	103.585
815.935	103.585
816.063	103.271
816.191	104.475
816.319	103.627
816.447	104.441
816.575	104.805
816.703	103.449
816.831	103.610
816.960	103.831
817.088	103.169
817.216	104.119
817.344	103.517
817.472	104.941
817.600	103.737
817.728	103.712
817.856	103.949
817.985	103.644
818.113	103.339
818.241	104.331
818.369	102.881
818.497	103.525
818.625	103.458
818.753	103.364
818.881	104.331
819.010	103.831
819.138	103.983
819.266	103.220
819.394	103.381
819.522	103.025
819.650	104.246
819.778	103.449
819.906	103.856
820.035	103.669
820.163	103.593
820.291	103.814
820.419	103.695
820.547	103.941
820.675	103.263
820.803	104.085
820.931	103.186
821.060	103.568
821.188	104.593
821.316	103.212
821.444	103.932
821.572	103.195
821.700	103.508
821.828	103.890
821.956	104.254
822.085	103.407
822.213	104.407
822.341	103.686
822.469	103.153
822.597	103.364
822.725	103.305
822.853	103.780
822.981	103.763
823.110	103.169
823.238	103.068
823.366	104.008
823.494	102.975
823.622	102.839
823.750	103.941
823.878	103.102
824.006	104.347
824.135	104.017
824.263	103.907
824.391	102.678
824.519	103.975
824.647	103.814
824.775	104.110
824.903	104.525
825.031	103.949
825.160	104.068
825.288	103.941
825.416	103.492
825.544	104.237
825.672	104.322
825.800	103.619
825.928	103.517
826.056	104.017
826.185	103.992
826.313	103.924
826.441	103.178
826.569	103.339
826.697	102.966
826.825	103.797
826.953	103.771
827.081	103.356
827.210	104.034
827.338	103.381
827.466	103.941
827.594	103.407
827.722	103.805
827.850	103.407
827.978	103.119
828.106	103.864
828.235	103.898
828.363	103.237
828.491	103.619
828.619	103.220
828.747	103.831
828.875	102.653
829.003	103.864
829.131	104.212
829.260	104.458
829.388	103.763
829.516	103.542
829.644	103.373
829.772	103.864
829.900	102.983
830.028	103.695
830.156	103.678
830.285	103.534
830.413	103.831
830.541	103.390
830.669	103.873
830.797	103.068
830.925	103.542
831.053	102.712
831.181	103.864
831.310	104.161
831.438	103.508
831.566	103.695
831.694	103.127
831.822	102.966
831.950	104.212
832.078	103.525
832.206	103.263
832.335	103.568
832.463	103.678
832.591	103.644
832.719	102.737
832.847	103.110
832.975	103.119
833.103	103.229
833.231	103.263
833.360	103.576
833.488	102.932
833.616	102.746
833.744	103.805
833.872	104.517
834.000	103.847
834.128	103.331
834.256	103.288
834.385	103.254
834.513	103.890
834.641	104.085
834.769	102.814
834.897	103.525
835.025	103.322
835.153	103.237
835.281	103.441
835.410	103.364
835.538	103.407
835.666	103.398
835.794	103.627
835.922	103.610
836.050	103.195
836.178	103.686
836.306	103.271
836.435	103.059
836.563	102.619
836.691	103.483
836.819	103.517
836.947	104.441
837.075	103.008
837.203	103.144
837.331	103.263
837.460	103.517
837.588	103.144
837.716	103.636
837.844	103.703
837.972	102.864
838.100	103.831
838.228	102.703
838.356	103.585
838.485	102.636
838.613	103.407
838.741	103.983
838.869	103.246
838.997	103.271
839.125	102.797
839.253	103.381
839.381	103.398
839.510	102.542
839.638	102.814
839.766	102.746
839.894	102.941
840.022	103.407
840.150	103.127
840.278	103.127
840.406	103.161
840.535	104.263
840.663	103.051
840.791	103.161
840.919	102.873
841.047	103.042
841.175	103.432
841.303	103.407
841.431	103.661
841.560	103.144
841.688	103.653
841.816	103.203
841.944	102.534
842.072	102.602
842.200	102.559
842.328	104.017
842.456	103.136
842.585	103.424
842.713	102.788
842.841	103.678
842.969	103.331
843.097	102.924
843.225	102.780
843.353	102.797
843.481	102.517
843.610	103.059
843.738	102.602
843.866	102.966
